Integration Time,1000
Timestamp,2021-05-09 15_43_57.488000
Note,
Temperature,9.98
CCD C0,801.50982666
CCD C1,0.141540005803
CCD C2,-5.58820011065e-06
CCD C3,-8.47330028364e-09
CCD Offset,0
CCD Gain,NA
Laser Wavelength,785.0
Laser Enable,0
Laser Power,100
Laser Temperature,0.00
Pixel Count,1024

Wavenumber,Spectrum
262.40,26.00
264.60,30.00
266.80,11.00
269.01,33.00
271.21,23.00
273.40,36.00
275.60,42.00
277.80,69.00
280.00,72.00
282.19,95.00
284.38,109.00
286.58,173.00
288.77,183.00
290.96,271.00
293.15,324.00
295.34,423.00
297.53,555.00
299.72,702.00
301.90,925.00
304.09,1159.00
306.27,1442.00
308.46,1750.00
310.64,2129.00
312.82,2435.00
315.00,2736.00
317.18,3148.00
319.36,3411.00
321.54,3674.00
323.72,3728.00
325.89,3862.00
328.07,3919.00
330.24,3947.00
332.42,3830.00
334.59,3831.00
336.76,3858.00
338.93,3780.00
341.10,3718.00
343.27,3694.00
345.43,3742.00
347.60,3628.00
349.77,3618.00
351.93,3620.00
354.09,3609.00
356.26,3594.00
358.42,3605.00
360.58,3535.00
362.74,3592.00
364.90,3612.00
367.06,3529.00
369.21,3538.00
371.37,3510.00
373.52,3525.00
375.68,3544.00
377.83,3475.00
379.98,3510.00
382.13,3510.00
384.28,3514.00
386.43,3499.00
388.58,3513.00
390.73,3449.00
392.87,3470.00
395.02,3496.00
397.16,3534.00
399.31,3546.00
401.45,3578.00
403.59,3619.00
405.73,3700.00
407.87,3784.00
410.01,3801.00
412.15,3864.00
414.28,3942.00
416.42,3984.00
418.55,4018.00
420.69,3998.00
422.82,3995.00
424.95,3995.00
427.08,3959.00
429.21,3986.00
431.34,3987.00
433.47,3947.00
435.60,3997.00
437.72,4096.00
439.85,4071.00
441.97,4050.00
444.10,4057.00
446.22,3893.00
448.34,3923.00
450.46,3824.00
452.58,3837.00
454.70,3748.00
456.81,3747.00
458.93,3752.00
461.05,3757.00
463.16,3715.00
465.27,3736.00
467.39,3715.00
469.50,3711.00
471.61,3715.00
473.72,3651.00
475.83,3683.00
477.93,3672.00
480.04,3699.00
482.15,3732.00
484.25,3709.00
486.35,3727.00
488.46,3748.00
490.56,3700.00
492.66,3677.00
494.76,3737.00
496.86,3628.00
498.96,3702.00
501.05,3628.00
503.15,3653.00
505.24,3690.00
507.34,3656.00
509.43,3643.00
511.52,3553.00
513.61,3643.00
515.70,3584.00
517.79,3632.00
519.88,3544.00
521.97,3531.00
524.06,3538.00
526.14,3512.00
528.23,3508.00
530.31,3451.00
532.39,3466.00
534.47,3405.00
536.55,3327.00
538.63,3274.00
540.71,3228.00
542.79,3222.00
544.87,3223.00
546.94,3184.00
549.02,3170.00
551.09,3141.00
553.16,3122.00
555.23,3158.00
557.30,3122.00
559.37,3131.00
561.44,3090.00
563.51,3126.00
565.58,3171.00
567.64,3152.00
569.71,3111.00
571.77,3086.00
573.84,3078.00
575.90,3091.00
577.96,3116.00
580.02,3061.00
582.08,3047.00
584.14,3032.00
586.19,3005.00
588.25,2930.00
590.30,2975.00
592.36,3015.00
594.41,2981.00
596.46,3000.00
598.51,2990.00
600.56,2983.00
602.61,2924.00
604.66,3015.00
606.71,2941.00
608.76,2966.00
610.80,2897.00
612.85,2981.00
614.89,2955.00
616.93,2933.00
618.97,2994.00
621.01,2962.00
623.05,2987.00
625.09,2953.00
627.13,2991.00
629.17,2989.00
631.20,2943.00
633.24,2966.00
635.27,2909.00
637.30,2951.00
639.33,2943.00
641.36,2946.00
643.39,2964.00
645.42,2925.00
647.45,2905.00
649.48,2884.00
651.50,2840.00
653.53,2827.00
655.55,2869.00
657.58,2859.00
659.60,2799.00
661.62,2808.00
663.64,2828.00
665.66,2800.00
667.68,2804.00
669.69,2834.00
671.71,2785.00
673.72,2815.00
675.74,2778.00
677.75,2777.00
679.76,2753.00
681.77,2806.00
683.78,2825.00
685.79,2800.00
687.80,2796.00
689.81,2801.00
691.81,2806.00
693.82,2796.00
695.82,2789.00
697.83,2829.00
699.83,2810.00
701.83,2852.00
703.83,2841.00
705.83,2846.00
707.83,2870.00
709.83,2855.00
711.82,2886.00
713.82,2949.00
715.81,2873.00
717.81,2913.00
719.80,2904.00
721.79,2886.00
723.78,2886.00
725.77,2979.00
727.76,2939.00
729.75,3013.00
731.73,3047.00
733.72,3013.00
735.70,2960.00
737.69,2897.00
739.67,2867.00
741.65,2872.00
743.63,2831.00
745.61,2861.00
747.59,2831.00
749.57,2870.00
751.55,2846.00
753.52,2897.00
755.50,2905.00
757.47,2918.00
759.44,2934.00
761.41,2848.00
763.39,2857.00
765.36,2775.00
767.32,2821.00
769.29,2869.00
771.26,2849.00
773.22,2860.00
775.19,2869.00
777.15,2855.00
779.12,2834.00
781.08,2823.00
783.04,2887.00
785.00,2925.00
786.96,2917.00
788.92,2977.00
790.87,3042.00
792.83,3049.00
794.79,3078.00
796.74,3145.00
798.69,3175.00
800.64,3177.00
802.60,3163.00
804.55,3131.00
806.50,3051.00
808.44,3048.00
810.39,3045.00
812.34,2962.00
814.28,2920.00
816.23,2884.00
818.17,2874.00
820.11,2904.00
822.05,2935.00
823.99,2852.00
825.93,2859.00
827.87,2890.00
829.81,2920.00
831.75,2917.00
833.68,2933.00
835.62,2987.00
837.55,2996.00
839.48,2920.00
841.41,2955.00
843.34,2892.00
845.27,2914.00
847.20,2886.00
849.13,2854.00
851.06,2811.00
852.98,2814.00
854.91,2813.00
856.83,2848.00
858.75,2793.00
860.67,2737.00
862.59,2789.00
864.51,2779.00
866.43,2730.00
868.35,2703.00
870.27,2684.00
872.18,2720.00
874.10,2684.00
876.01,2612.00
877.92,2657.00
879.84,2663.00
881.75,2695.00
883.66,2644.00
885.56,2634.00
887.47,2679.00
889.38,2693.00
891.28,2654.00
893.19,2643.00
895.09,2674.00
897.00,2663.00
898.90,2664.00
900.80,2630.00
902.70,2679.00
904.60,2713.00
906.50,2779.00
908.39,2793.00
910.29,2869.00
912.18,2853.00
914.08,2865.00
915.97,2926.00
917.86,2848.00
919.75,2842.00
921.64,2808.00
923.53,2772.00
925.42,2755.00
927.31,2752.00
929.19,2688.00
931.08,2732.00
932.96,2775.00
934.85,2773.00
936.73,2842.00
938.61,2832.00
940.49,2810.00
942.37,2791.00
944.25,2787.00
946.12,2754.00
948.00,2721.00
949.87,2720.00
951.75,2676.00
953.62,2653.00
955.49,2673.00
957.37,2644.00
959.24,2570.00
961.10,2597.00
962.97,2569.00
964.84,2570.00
966.71,2575.00
968.57,2540.00
970.44,2518.00
972.30,2492.00
974.16,2557.00
976.02,2541.00
977.88,2551.00
979.74,2526.00
981.60,2491.00
983.46,2513.00
985.31,2504.00
987.17,2534.00
989.02,2515.00
990.88,2522.00
992.73,2508.00
994.58,2525.00
996.43,2519.00
998.28,2523.00
1000.13,2524.00
1001.98,2558.00
1003.82,2539.00
1005.67,2572.00
1007.51,2547.00
1009.36,2584.00
1011.20,2564.00
1013.04,2563.00
1014.88,2598.00
1016.72,2578.00
1018.56,2595.00
1020.40,2633.00
1022.23,2650.00
1024.07,2615.00
1025.90,2595.00
1027.74,2564.00
1029.57,2619.00
1031.40,2568.00
1033.23,2595.00
1035.06,2596.00
1036.89,2530.00
1038.72,2488.00
1040.54,2518.00
1042.37,2440.00
1044.19,2439.00
1046.02,2445.00
1047.84,2399.00
1049.66,2405.00
1051.48,2413.00
1053.30,2366.00
1055.12,2380.00
1056.94,2372.00
1058.76,2387.00
1060.57,2351.00
1062.39,2391.00
1064.20,2347.00
1066.01,2324.00
1067.82,2359.00
1069.63,2388.00
1071.44,2340.00
1073.25,2363.00
1075.06,2357.00
1076.87,2357.00
1078.67,2359.00
1080.48,2374.00
1082.28,2389.00
1084.08,2413.00
1085.89,2367.00
1087.69,2382.00
1089.49,2399.00
1091.29,2427.00
1093.08,2371.00
1094.88,2376.00
1096.68,2406.00
1098.47,2370.00
1100.27,2374.00
1102.06,2393.00
1103.85,2380.00
1105.64,2372.00
1107.43,2391.00
1109.22,2388.00
1111.01,2391.00
1112.79,2402.00
1114.58,2405.00
1116.37,2448.00
1118.15,2389.00
1119.93,2410.00
1121.71,2368.00
1123.49,2365.00
1125.27,2389.00
1127.05,2387.00
1128.83,2407.00
1130.61,2405.00
1132.38,2374.00
1134.16,2387.00
1135.93,2348.00
1137.71,2385.00
1139.48,2378.00
1141.25,2395.00
1143.02,2381.00
1144.79,2365.00
1146.56,2423.00
1148.32,2464.00
1150.09,2435.00
1151.86,2471.00
1153.62,2456.00
1155.38,2490.00
1157.14,2487.00
1158.91,2550.00
1160.67,2635.00
1162.42,2700.00
1164.18,2818.00
1165.94,2873.00
1167.70,2977.00
1169.45,3100.00
1171.21,3101.00
1172.96,3026.00
1174.71,3061.00
1176.46,2968.00
1178.21,2863.00
1179.96,2810.00
1181.71,2722.00
1183.46,2692.00
1185.20,2589.00
1186.95,2540.00
1188.69,2490.00
1190.44,2473.00
1192.18,2406.00
1193.92,2431.00
1195.66,2306.00
1197.40,2346.00
1199.14,2370.00
1200.87,2329.00
1202.61,2347.00
1204.35,2367.00
1206.08,2355.00
1207.81,2397.00
1209.55,2447.00
1211.28,2540.00
1213.01,2576.00
1214.74,2621.00
1216.46,2636.00
1218.19,2545.00
1219.92,2527.00
1221.64,2516.00
1223.37,2395.00
1225.09,2351.00
1226.81,2357.00
1228.53,2333.00
1230.26,2319.00
1231.97,2270.00
1233.69,2262.00
1235.41,2253.00
1237.13,2249.00
1238.84,2277.00
1240.56,2241.00
1242.27,2239.00
1243.98,2249.00
1245.69,2272.00
1247.40,2232.00
1249.11,2283.00
1250.82,2260.00
1252.53,2279.00
1254.24,2270.00
1255.94,2237.00
1257.65,2211.00
1259.35,2230.00
1261.05,2252.00
1262.75,2215.00
1264.45,2240.00
1266.15,2267.00
1267.85,2222.00
1269.55,2206.00
1271.25,2252.00
1272.94,2231.00
1274.64,2262.00
1276.33,2275.00
1278.02,2277.00
1279.71,2311.00
1281.40,2344.00
1283.09,2360.00
1284.78,2366.00
1286.47,2349.00
1288.16,2467.00
1289.84,2471.00
1291.53,2509.00
1293.21,2547.00
1294.89,2589.00
1296.57,2532.00
1298.25,2547.00
1299.93,2536.00
1301.61,2542.00
1303.29,2482.00
1304.97,2481.00
1306.64,2414.00
1308.32,2351.00
1309.99,2344.00
1311.66,2310.00
1313.33,2292.00
1315.01,2256.00
1316.67,2310.00
1318.34,2214.00
1320.01,2237.00
1321.68,2233.00
1323.34,2212.00
1325.01,2256.00
1326.67,2226.00
1328.33,2227.00
1330.00,2228.00
1331.66,2310.00
1333.32,2309.00
1334.98,2380.00
1336.63,2374.00
1338.29,2402.00
1339.95,2348.00
1341.60,2400.00
1343.25,2363.00
1344.91,2336.00
1346.56,2350.00
1348.21,2363.00
1349.86,2410.00
1351.51,2448.00
1353.16,2480.00
1354.80,2519.00
1356.45,2549.00
1358.09,2653.00
1359.74,2711.00
1361.38,2766.00
1363.02,2785.00
1364.66,2901.00
1366.30,2834.00
1367.94,2808.00
1369.58,2811.00
1371.22,2792.00
1372.85,2757.00
1374.49,2757.00
1376.12,2756.00
1377.75,2751.00
1379.38,2701.00
1381.02,2720.00
1382.65,2706.00
1384.27,2687.00
1385.90,2699.00
1387.53,2690.00
1389.15,2731.00
1390.78,2766.00
1392.40,2814.00
1394.03,2742.00
1395.65,2725.00
1397.27,2621.00
1398.89,2532.00
1400.51,2504.00
1402.13,2416.00
1403.74,2376.00
1405.36,2354.00
1406.97,2277.00
1408.59,2235.00
1410.20,2191.00
1411.81,2243.00
1413.42,2180.00
1415.03,2176.00
1416.64,2150.00
1418.25,2142.00
1419.86,2137.00
1421.46,2142.00
1423.07,2099.00
1424.67,2112.00
1426.28,2104.00
1427.88,2079.00
1429.48,2111.00
1431.08,2121.00
1432.68,2170.00
1434.28,2153.00
1435.87,2203.00
1437.47,2165.00
1439.06,2229.00
1440.66,2189.00
1442.25,2189.00
1443.84,2209.00
1445.43,2175.00
1447.02,2177.00
1448.61,2186.00
1450.20,2197.00
1451.79,2148.00
1453.37,2126.00
1454.96,2172.00
1456.54,2138.00
1458.13,2109.00
1459.71,2064.00
1461.29,2098.00
1462.87,2059.00
1464.45,2077.00
1466.03,2077.00
1467.60,2102.00
1469.18,2058.00
1470.76,2064.00
1472.33,2056.00
1473.90,2040.00
1475.48,2045.00
1477.05,2041.00
1478.62,2041.00
1480.19,2005.00
1481.75,1998.00
1483.32,1974.00
1484.89,2024.00
1486.45,1965.00
1488.02,1984.00
1489.58,1986.00
1491.14,1964.00
1492.70,1941.00
1494.26,1942.00
1495.82,1935.00
1497.38,1917.00
1498.94,1864.00
1500.50,1885.00
1502.05,1849.00
1503.61,1800.00
1505.16,1826.00
1506.71,1847.00
1508.26,1804.00
1509.81,1837.00
1511.36,1821.00
1512.91,1820.00
1514.46,1839.00
1516.00,1786.00
1517.55,1802.00
1519.09,1801.00
1520.64,1803.00
1522.18,1818.00
1523.72,1838.00
1525.26,1853.00
1526.80,1833.00
1528.34,1882.00
1529.88,1889.00
1531.41,1897.00
1532.95,1866.00
1534.48,1897.00
1536.02,1919.00
1537.55,1924.00
1539.08,1903.00
1540.61,1908.00
1542.14,1925.00
1543.67,1922.00
1545.19,1917.00
1546.72,1888.00
1548.25,1894.00
1549.77,1845.00
1551.29,1889.00
1552.82,1859.00
1554.34,1855.00
1555.86,1914.00
1557.38,1897.00
1558.90,1868.00
1560.41,1875.00
1561.93,1893.00
1563.45,1881.00
1564.96,1864.00
1566.47,1940.00
1567.99,1906.00
1569.50,1899.00
1571.01,1929.00
1572.52,1977.00
1574.03,1957.00
1575.53,2004.00
1577.04,2078.00
1578.55,2149.00
1580.05,2228.00
1581.55,2241.00
1583.06,2319.00
1584.56,2387.00
1586.06,2300.00
1587.56,2319.00
1589.06,2313.00
1590.56,2260.00
1592.05,2284.00
1593.55,2245.00
1595.04,2167.00
1596.54,2194.00
1598.03,2116.00
1599.52,2119.00
1601.01,2147.00
1602.50,2112.00
1603.99,2108.00
1605.48,2096.00
1606.96,2211.00
1608.45,2222.00
1609.93,2241.00
1611.42,2336.00
1612.90,2428.00
1614.38,2389.00
1615.86,2359.00
1617.34,2327.00
1618.82,2253.00
1620.30,2173.00
1621.78,2074.00
1623.25,2009.00
1624.73,1992.00
1626.20,1944.00
1627.67,1956.00
1629.14,1919.00
1630.62,1906.00
1632.08,1883.00
1633.55,1912.00
1635.02,1938.00
1636.49,1884.00
1637.95,1855.00
1639.42,1889.00
1640.88,1830.00
1642.35,1867.00
1643.81,1828.00
1645.27,1805.00
1646.73,1816.00
1648.19,1792.00
1649.64,1769.00
1651.10,1767.00
1652.56,1758.00
1654.01,1720.00
1655.47,1720.00
1656.92,1676.00
1658.37,1645.00
1659.82,1626.00
1661.27,1659.00
1662.72,1616.00
1664.17,1582.00
1665.62,1634.00
1667.06,1589.00
1668.51,1554.00
1669.95,1575.00
1671.39,1520.00
1672.84,1551.00
1674.28,1505.00
1675.72,1489.00
1677.16,1467.00
1678.59,1431.00
1680.03,1434.00
1681.47,1448.00
1682.90,1411.00
1684.34,1381.00
1685.77,1377.00
1687.20,1381.00
1688.63,1351.00
1690.06,1355.00
1691.49,1333.00
1692.92,1299.00
1694.35,1307.00
1695.77,1307.00
1697.20,1307.00
1698.62,1290.00
1700.04,1286.00
1701.47,1232.00
1702.89,1252.00
1704.31,1259.00
1705.73,1210.00
1707.14,1217.00
1708.56,1222.00
1709.98,1189.00
1711.39,1185.00
1712.81,1214.00
1714.22,1174.00
1715.63,1159.00
1717.04,1145.00
1718.45,1136.00
1719.86,1130.00
1721.27,1149.00
1722.68,1144.00
1724.08,1130.00
1725.49,1121.00
1726.89,1109.00
1728.30,1099.00
1729.70,1057.00
1731.10,1048.00
1732.50,1052.00
1733.90,1068.00
1735.30,1069.00
1736.69,1051.00
1738.09,1041.00
1739.49,1023.00
1740.88,1027.00
1742.27,1035.00
1743.67,1021.00
1745.06,1018.00
1746.45,998.00
1747.84,999.00
1749.23,1002.00
1750.61,997.00
1752.00,985.00
1753.38,996.00
1754.77,976.00
1756.15,970.00
1757.53,970.00
1758.92,928.00
1760.30,940.00
1761.68,957.00
1763.05,944.00
1764.43,949.00
1765.81,936.00
1767.18,973.00
1768.56,950.00
1769.93,915.00
1771.30,921.00
1772.67,936.00
1774.05,907.00
1775.41,931.00
1776.78,909.00
1778.15,917.00
1779.52,913.00
1780.88,898.00
1782.25,917.00
1783.61,892.00
1784.97,906.00
1786.33,888.00
1787.69,892.00
1789.05,887.00
1790.41,883.00
1791.77,883.00
1793.13,867.00
1794.48,875.00
1795.84,873.00
1797.19,871.00
1798.54,861.00
1799.89,839.00
1801.25,896.00
1802.59,875.00
1803.94,856.00
1805.29,847.00
1806.64,833.00
1807.98,820.00
1809.33,860.00
1810.67,837.00
1812.01,859.00
1813.36,854.00
1814.70,807.00
1816.04,849.00
1817.37,837.00
1818.71,820.00
1820.05,814.00
1821.38,831.00
1822.72,811.00
1824.05,864.00
1825.39,818.00
1826.72,803.00
1828.05,830.00
1829.38,828.00
1830.71,801.00
1832.03,824.00
1833.36,807.00
1834.69,797.00
1836.01,797.00
1837.34,803.00
1838.66,791.00
1839.98,771.00
1841.30,782.00
1842.62,773.00
1843.94,773.00
1845.26,782.00
1846.57,788.00
1847.89,795.00
1849.20,758.00
1850.52,786.00
1851.83,761.00
1853.14,770.00
1854.45,746.00
1855.76,784.00
1857.07,745.00
1858.38,769.00
1859.69,767.00
1860.99,766.00
1862.30,768.00
1863.60,759.00
1864.90,755.00
1866.21,770.00
1867.51,757.00
1868.81,738.00
1870.11,759.00
1871.40,751.00
1872.70,749.00
1874.00,757.00
1875.29,723.00
1876.59,755.00
1877.88,753.00
1879.17,757.00
1880.46,731.00
1881.75,719.00
1883.04,732.00
1884.33,730.00
1885.62,739.00
1886.90,717.00
1888.19,740.00
1889.47,739.00
1890.75,738.00
1892.04,721.00
1893.32,702.00
1894.60,752.00
1895.88,710.00
1897.15,711.00
1898.43,727.00
1899.71,714.00
1900.98,694.00
1902.26,704.00
1903.53,700.00
1904.80,711.00
1906.07,717.00
1907.34,699.00
1908.61,702.00
1909.88,686.00
1911.15,675.00
1912.41,687.00
1913.68,689.00
1914.94,679.00
1916.21,703.00
1917.47,678.00
1918.73,702.00
1919.99,706.00
1921.25,684.00
1922.51,687.00
1923.76,703.00
1925.02,699.00
1926.28,664.00
1927.53,668.00
1928.78,696.00
1930.04,675.00
1931.29,669.00
1932.54,678.00
1933.79,659.00
1935.03,677.00
1936.28,666.00
1937.53,685.00
1938.77,649.00
1940.02,660.00
1941.26,673.00
1942.50,651.00
1943.75,637.00
1944.99,645.00
1946.22,651.00
1947.46,651.00
1948.70,656.00
1949.94,647.00
1951.17,641.00
1952.41,624.00
1953.64,637.00
1954.87,645.00
1956.10,611.00
1957.33,641.00
1958.56,646.00
1959.79,622.00
1961.02,653.00
1962.25,623.00
1963.47,641.00
1964.70,632.00
1965.92,630.00
1967.14,618.00
1968.36,641.00
1969.58,616.00
1970.80,629.00
1972.02,618.00
1973.24,611.00
1974.46,595.00
1975.67,606.00
1976.89,630.00
1978.10,622.00
1979.31,626.00
1980.52,624.00
1981.73,624.00
1982.94,649.00
1984.15,612.00
1985.36,630.00
1986.57,631.00
1987.77,611.00
1988.98,635.00
1990.18,622.00
1991.38,595.00
1992.58,616.00
1993.78,616.00
1994.98,624.00
1996.18,624.00
1997.38,626.00
1998.58,599.00
1999.77,599.00
2000.97,590.00
2002.16,643.00
