Integration Time,200
Timestamp,2023-07-10 13_36_16.549000
Note,
Temperature,9.97
CCD C0,801.50982666
CCD C1,0.141540005803
CCD C2,-5.58820011065e-06
CCD C3,-8.47330028364e-09
CCD Offset,0
CCD Gain,NA
Laser Wavelength,785.0
Laser Enable,0
Laser Power,100
Laser Temperature,0.00
Pixel Count,1024

Wavenumber,Spectrum
262.40,-69.00
264.60,-70.00
266.80,-51.00
269.01,-48.00
271.21,-50.00
273.40,-61.00
275.60,-40.00
277.80,-57.00
280.00,-59.00
282.19,-17.00
284.38,-15.00
286.58,-2.00
288.77,26.00
290.96,101.00
293.15,121.00
295.34,226.00
297.53,287.00
299.72,394.00
301.90,445.00
304.09,654.00
306.27,919.00
308.46,1085.00
310.64,1379.00
312.82,1640.00
315.00,1900.00
317.18,2137.00
319.36,2292.00
321.54,2371.00
323.72,2465.00
325.89,2502.00
328.07,2476.00
330.24,2401.00
332.42,2392.00
334.59,2363.00
336.76,2319.00
338.93,2332.00
341.10,2279.00
343.27,2262.00
345.43,2258.00
347.60,2233.00
349.77,2257.00
351.93,2249.00
354.09,2301.00
356.26,2361.00
358.42,2357.00
360.58,2340.00
362.74,2375.00
364.90,2353.00
367.06,2441.00
369.21,2446.00
371.37,2568.00
373.52,2656.00
375.68,2690.00
377.83,2678.00
379.98,2702.00
382.13,2648.00
384.28,2709.00
386.43,2663.00
388.58,2652.00
390.73,2631.00
392.87,2614.00
395.02,2617.00
397.16,2595.00
399.31,2622.00
401.45,2694.00
403.59,2675.00
405.73,2703.00
407.87,2732.00
410.01,2799.00
412.15,2774.00
414.28,2788.00
416.42,2827.00
418.55,2827.00
420.69,2818.00
422.82,2801.00
424.95,2785.00
427.08,2722.00
429.21,2745.00
431.34,2749.00
433.47,2808.00
435.60,2789.00
437.72,2829.00
439.85,2871.00
441.97,2922.00
444.10,2966.00
446.22,2955.00
448.34,2972.00
450.46,2937.00
452.58,2905.00
454.70,2882.00
456.81,2812.00
458.93,2872.00
461.05,2847.00
463.16,2783.00
465.27,2825.00
467.39,2827.00
469.50,2507.00
471.61,2884.00
473.72,2954.00
475.83,2989.00
477.93,3013.00
480.04,3059.00
482.15,3110.00
484.25,3095.00
486.35,3213.00
488.46,3124.00
490.56,3070.00
492.66,3000.00
494.76,3088.00
496.86,3175.00
498.96,3269.00
501.05,3444.00
503.15,3559.00
505.24,3672.00
507.34,3814.00
509.43,4010.00
511.52,4073.00
513.61,4394.00
515.70,4866.00
517.79,5943.00
519.88,7516.00
521.97,8888.00
524.06,9153.00
526.14,7851.00
528.23,6131.00
530.31,4866.00
532.39,4430.00
534.47,4418.00
536.55,4435.00
538.63,4449.00
540.71,4215.00
542.79,4185.00
544.87,4094.00
546.94,4271.00
549.02,4760.00
551.09,5688.00
553.16,6892.00
555.23,7853.00
557.30,7976.00
559.37,7469.00
561.44,6831.00
563.51,6306.00
565.58,5753.00
567.64,5163.00
569.71,4579.00
571.77,4092.00
573.84,4029.00
575.90,3850.00
577.96,4007.00
580.02,4002.00
582.08,4055.00
584.14,4035.00
586.19,3905.00
588.25,3822.00
590.30,3728.00
592.36,3731.00
594.41,3744.00
596.46,3846.00
598.51,3990.00
600.56,4001.00
602.61,3972.00
604.66,3950.00
606.71,3980.00
608.76,4170.00
610.80,4378.00
612.85,4756.00
614.89,5106.00
616.93,5134.00
618.97,4898.00
621.01,4496.00
623.05,4176.00
625.09,4014.00
627.13,3931.00
629.17,4017.00
631.20,4162.00
633.24,4307.00
635.27,4535.00
637.30,4723.00
639.33,4767.00
641.36,4733.00
643.39,4594.00
645.42,4438.00
647.45,4202.00
649.48,4050.00
651.50,3967.00
653.53,3869.00
655.55,3845.00
657.58,3870.00
659.60,3848.00
661.62,3863.00
663.64,3865.00
665.66,3868.00
667.68,3921.00
669.69,3953.00
671.71,3980.00
673.72,4054.00
675.74,4100.00
677.75,4143.00
679.76,4276.00
681.77,4381.00
683.78,4404.00
685.79,4408.00
687.80,4427.00
689.81,4397.00
691.81,4366.00
693.82,4406.00
695.82,4487.00
697.83,4522.00
699.83,4570.00
701.83,4568.00
703.83,4505.00
705.83,4493.00
707.83,4629.00
709.83,4889.00
711.82,5391.00
713.82,5973.00
715.81,6061.00
717.81,5768.00
719.80,5182.00
721.79,4655.00
723.78,4373.00
725.77,4244.00
727.76,4273.00
729.75,4332.00
731.73,4412.00
733.72,4389.00
735.70,4316.00
737.69,4339.00
739.67,4408.00
741.65,4385.00
743.63,4461.00
745.61,4472.00
747.59,4555.00
749.57,4657.00
751.55,4623.00
753.52,4759.00
755.50,4786.00
757.47,4796.00
759.44,4817.00
761.41,4776.00
763.39,4971.00
765.36,4790.00
767.32,5180.00
769.29,5224.00
771.26,5326.00
773.22,5302.00
775.19,5281.00
777.15,5222.00
779.12,5134.00
781.08,5140.00
783.04,5087.00
785.00,5005.00
786.96,5081.00
788.92,5298.00
790.87,5539.00
792.83,6152.00
794.79,6841.00
796.74,7404.00
798.69,7883.00
800.64,8014.00
802.60,7919.00
804.55,7746.00
806.50,7318.00
808.44,6877.00
810.39,6436.00
812.34,6065.00
814.28,5880.00
816.23,6096.00
818.17,6474.00
820.11,6715.00
822.05,6854.00
823.99,6570.00
825.93,6234.00
827.87,6034.00
829.81,5720.00
831.75,5642.00
833.68,5637.00
835.62,5543.00
837.55,5610.00
839.48,5574.00
841.41,5638.00
843.34,5545.00
845.27,5562.00
847.20,5494.00
849.13,5484.00
851.06,5437.00
852.98,5431.00
854.91,5461.00
856.83,5589.00
858.75,5668.00
860.67,5748.00
862.59,5772.00
864.51,5770.00
866.43,5647.00
868.35,5625.00
870.27,5436.00
872.18,5330.00
874.10,5161.00
876.01,5191.00
877.92,5078.00
879.84,5061.00
881.75,5136.00
883.66,5226.00
885.56,5322.00
887.47,5418.00
889.38,5549.00
891.28,5711.00
893.19,5781.00
895.09,5975.00
897.00,6053.00
898.90,6109.00
900.80,6192.00
902.70,6362.00
904.60,6449.00
906.50,6503.00
908.39,6691.00
910.29,6712.00
912.18,6693.00
914.08,6727.00
915.97,6613.00
917.86,6544.00
919.75,6609.00
921.64,6706.00
923.53,6803.00
925.42,7168.00
927.31,7444.00
929.19,7880.00
931.08,8461.00
932.96,9051.00
934.85,9795.00
936.73,10293.00
938.61,10568.00
940.49,10199.00
942.37,9451.00
944.25,8437.00
946.12,7621.00
948.00,7006.00
949.87,6618.00
951.75,6441.00
953.62,6217.00
955.49,6102.00
957.37,5928.00
959.24,5872.00
961.10,5865.00
962.97,5819.00
964.84,5770.00
966.71,5703.00
968.57,5743.00
970.44,5669.00
972.30,5692.00
974.16,5777.00
976.02,5842.00
977.88,5863.00
979.74,5890.00
981.60,5897.00
983.46,6038.00
985.31,6091.00
987.17,6211.00
989.02,6409.00
990.88,6565.00
992.73,6878.00
994.58,7151.00
996.43,7551.00
998.28,8022.00
1000.13,8534.00
1001.98,8790.00
1003.82,8829.00
1005.67,8662.00
1007.51,8275.00
1009.36,7860.00
1011.20,7594.00
1013.04,7457.00
1014.88,7438.00
1016.72,7608.00
1018.56,7737.00
1020.40,8030.00
1022.23,7954.00
1024.07,7579.00
1025.90,7381.00
1027.74,7181.00
1029.57,7186.00
1031.40,7151.00
1033.23,7398.00
1035.06,7566.00
1036.89,7882.00
1038.72,8298.00
1040.54,8891.00
1042.37,9409.00
1044.19,9991.00
1046.02,10425.00
1047.84,10935.00
1049.66,11313.00
1051.48,11479.00
1053.30,11452.00
1055.12,11429.00
1056.94,11186.00
1058.76,10976.00
1060.57,10822.00
1062.39,10674.00
1064.20,10442.00
1066.01,10119.00
1067.82,9636.00
1069.63,9234.00
1071.44,8816.00
1073.25,8604.00
1075.06,8553.00
1076.87,8610.00
1078.67,8728.00
1080.48,9097.00
1082.28,9428.00
1084.08,9921.00
1085.89,10219.00
1087.69,10623.00
1089.49,11051.00
1091.29,11405.00
1093.08,11463.00
1094.88,11530.00
1096.68,11560.00
1098.47,11674.00
1100.27,11701.00
1102.06,11825.00
1103.85,11759.00
1105.64,11771.00
1107.43,11793.00
1109.22,12061.00
1111.01,12184.00
1112.79,12521.00
1114.58,13082.00
1116.37,13653.00
1118.15,14551.00
1119.93,15375.00
1121.71,15510.00
1123.49,14947.00
1125.27,13996.00
1127.05,13364.00
1128.83,13174.00
1130.61,13358.00
1132.38,13558.00
1134.16,13397.00
1135.93,13075.00
1137.71,12437.00
1139.48,11659.00
1141.25,10906.00
1143.02,10168.00
1144.79,9868.00
1146.56,9799.00
1148.32,10035.00
1150.09,10437.00
1151.86,10788.00
1153.62,11220.00
1155.38,11393.00
1157.14,11464.00
1158.91,11336.00
1160.67,11125.00
1162.42,11104.00
1164.18,11213.00
1165.94,11365.00
1167.70,11406.00
1169.45,11298.00
1171.21,11300.00
1172.96,11427.00
1174.71,11631.00
1176.46,11903.00
1178.21,11882.00
1179.96,11614.00
1181.71,11228.00
1183.46,10615.00
1185.20,9942.00
1186.95,9477.00
1188.69,9348.00
1190.44,9348.00
1192.18,9436.00
1193.92,9953.00
1195.66,10829.00
1197.40,12190.00
1199.14,14122.00
1200.87,16583.00
1202.61,19153.00
1204.35,21428.00
1206.08,22252.00
1207.81,21493.00
1209.55,19532.00
1211.28,16735.00
1213.01,14110.00
1214.74,12208.00
1216.46,10923.00
1218.19,10092.00
1219.92,9705.00
1221.64,9437.00
1223.37,9533.00
1225.09,9633.00
1226.81,9768.00
1228.53,10115.00
1230.26,10489.00
1231.97,10812.00
1233.69,10989.00
1235.41,11167.00
1237.13,11020.00
1238.84,10822.00
1240.56,10592.00
1242.27,10410.00
1243.98,10330.00
1245.69,10506.00
1247.40,10699.00
1249.11,10721.00
1250.82,10854.00
1252.53,10709.00
1254.24,10636.00
1255.94,10607.00
1257.65,10443.00
1259.35,10615.00
1261.05,10672.00
1262.75,10805.00
1264.45,10750.00
1266.15,10695.00
1267.85,10828.00
1269.55,10798.00
1271.25,11001.00
1272.94,11163.00
1274.64,11355.00
1276.33,11621.00
1278.02,11610.00
1279.71,11705.00
1281.40,11667.00
1283.09,11612.00
1284.78,11587.00
1286.47,11230.00
1288.16,10974.00
1289.84,10733.00
1291.53,10469.00
1293.21,10284.00
1294.89,10389.00
1296.57,10489.00
1298.25,10855.00
1299.93,10745.00
1301.61,10526.00
1303.29,10202.00
1304.97,9864.00
1306.64,9477.00
1308.32,9132.00
1309.99,8968.00
1311.66,8814.00
1313.33,8699.00
1315.01,8619.00
1316.67,8503.00
1318.34,8435.00
1320.01,8429.00
1321.68,8460.00
1323.34,8551.00
1325.01,8616.00
1326.67,8726.00
1328.33,8926.00
1330.00,9004.00
1331.66,9076.00
1333.32,9291.00
1334.98,9477.00
1336.63,9755.00
1338.29,10101.00
1339.95,10545.00
1341.60,10906.00
1343.25,11331.00
1344.91,11694.00
1346.56,11979.00
1348.21,12004.00
1349.86,11960.00
1351.51,11806.00
1353.16,11735.00
1354.80,11882.00
1356.45,12075.00
1358.09,12556.00
1359.74,13284.00
1361.38,14380.00
1363.02,15396.00
1364.66,16503.00
1366.30,17199.00
1367.94,17511.00
1369.58,17331.00
1371.22,16805.00
1372.85,15825.00
1374.49,15047.00
1376.12,14625.00
1377.75,14616.00
1379.38,14587.00
1381.02,14650.00
1382.65,14365.00
1384.27,13844.00
1385.90,13267.00
1387.53,12651.00
1389.15,12230.00
1390.78,12085.00
1392.40,11946.00
1394.03,12159.00
1395.65,12385.00
1397.27,12688.00
1398.89,13048.00
1400.51,13384.00
1402.13,13980.00
1403.74,14238.00
1405.36,14655.00
1406.97,14939.00
1408.59,14997.00
1410.20,14912.00
1411.81,14667.00
1413.42,14326.00
1415.03,13794.00
1416.64,13332.00
1418.25,12812.00
1419.86,12082.00
1421.46,11505.00
1423.07,10916.00
1424.67,10564.00
1426.28,10256.00
1427.88,10054.00
1429.48,10061.00
1431.08,10067.00
1432.68,9955.00
1434.28,9976.00
1435.87,9772.00
1437.47,9740.00
1439.06,9626.00
1440.66,9447.00
1442.25,9310.00
1443.84,9116.00
1445.43,8803.00
1447.02,8620.00
1448.61,8534.00
1450.20,8448.00
1451.79,8355.00
1453.37,8449.00
1454.96,8633.00
1456.54,8639.00
1458.13,9112.00
1459.71,9335.00
1461.29,9967.00
1462.87,10941.00
1464.45,12061.00
1466.03,13076.00
1467.60,13520.00
1469.18,12965.00
1470.76,11747.00
1472.33,10257.00
1473.90,9196.00
1475.48,8449.00
1477.05,8106.00
1478.62,7950.00
1480.19,7865.00
1481.75,7967.00
1483.32,8028.00
1484.89,8000.00
1486.45,7881.00
1488.02,7676.00
1489.58,7332.00
1491.14,7220.00
1492.70,7175.00
1494.26,7098.00
1495.82,7110.00
1497.38,7115.00
1498.94,7177.00
1500.50,7281.00
1502.05,7305.00
1503.61,7526.00
1505.16,7704.00
1506.71,7721.00
1508.26,7931.00
1509.81,8193.00
1511.36,8429.00
1512.91,8616.00
1514.46,8903.00
1516.00,9181.00
1517.55,9634.00
1519.09,10090.00
1520.64,10646.00
1522.18,11007.00
1523.72,11459.00
1525.26,11595.00
1526.80,11612.00
1528.34,11441.00
1529.88,10949.00
1531.41,10457.00
1532.95,9919.00
1534.48,9502.00
1536.02,8856.00
1537.55,8520.00
1539.08,8102.00
1540.61,7912.00
1542.14,7795.00
1543.67,7577.00
1545.19,7575.00
1546.72,7468.00
1548.25,7400.00
1549.77,7303.00
1551.29,7130.00
1552.82,7048.00
1554.34,6946.00
1555.86,6769.00
1557.38,6588.00
1558.90,6447.00
1560.41,6409.00
1561.93,6285.00
1563.45,6205.00
1564.96,6173.00
1566.47,6134.00
1567.99,6113.00
1569.50,6102.00
1571.01,6247.00
1572.52,6316.00
1574.03,6451.00
1575.53,6662.00
1577.04,6826.00
1578.55,7144.00
1580.05,7392.00
1581.55,7590.00
1583.06,7718.00
1584.56,7714.00
1586.06,7575.00
1587.56,7318.00
1589.06,7127.00
1590.56,6866.00
1592.05,6736.00
1593.55,6521.00
1595.04,6453.00
1596.54,6432.00
1598.03,6554.00
1599.52,6461.00
1601.01,6428.00
1602.50,6310.00
1603.99,6141.00
1605.48,5884.00
1606.96,5800.00
1608.45,5755.00
1609.93,5566.00
1611.42,5733.00
1612.90,5776.00
1614.38,5810.00
1615.86,5734.00
1617.34,5701.00
1618.82,5560.00
1620.30,5378.00
1621.78,5256.00
1623.25,5151.00
1624.73,5083.00
1626.20,4906.00
1627.67,4916.00
1629.14,4836.00
1630.62,4794.00
1632.08,4765.00
1633.55,4691.00
1635.02,4748.00
1636.49,4794.00
1637.95,4733.00
1639.42,4718.00
1640.88,4709.00
1642.35,4682.00
1643.81,4650.00
1645.27,4628.00
1646.73,4611.00
1648.19,4605.00
1649.64,4623.00
1651.10,4631.00
1652.56,4598.00
1654.01,4529.00
1655.47,4562.00
1656.92,4562.00
1658.37,4495.00
1659.82,4522.00
1661.27,4465.00
1662.72,4466.00
1664.17,4445.00
1665.62,4393.00
1667.06,4379.00
1668.51,4373.00
1669.95,4374.00
1671.39,4293.00
1672.84,4372.00
1674.28,4243.00
1675.72,4202.00
1677.16,4254.00
1678.59,4206.00
1680.03,4219.00
1681.47,4259.00
1682.90,4245.00
1684.34,4183.00
1685.77,4165.00
1687.20,4159.00
1688.63,4107.00
1690.06,4128.00
1691.49,4105.00
1692.92,4030.00
1694.35,4058.00
1695.77,3974.00
1697.20,3936.00
1698.62,3943.00
1700.04,3957.00
1701.47,3915.00
1702.89,3875.00
1704.31,3893.00
1705.73,3862.00
1707.14,3784.00
1708.56,3783.00
1709.98,3773.00
1711.39,3788.00
1712.81,3776.00
1714.22,3762.00
1715.63,3780.00
1717.04,3696.00
1718.45,3694.00
1719.86,3757.00
1721.27,3698.00
1722.68,3716.00
1724.08,3685.00
1725.49,3751.00
1726.89,3710.00
1728.30,3740.00
1729.70,3725.00
1731.10,3702.00
1732.50,3647.00
1733.90,3631.00
1735.30,3619.00
1736.69,3601.00
1738.09,3551.00
1739.49,3565.00
1740.88,3521.00
1742.27,3460.00
1743.67,3411.00
1745.06,3394.00
1746.45,3414.00
1747.84,3401.00
1749.23,3334.00
1750.61,3362.00
1752.00,3376.00
1753.38,3341.00
1754.77,3358.00
1756.15,3361.00
1757.53,3373.00
1758.92,3344.00
1760.30,3355.00
1761.68,3342.00
1763.05,3292.00
1764.43,3253.00
1765.81,3295.00
1767.18,3274.00
1768.56,3224.00
1769.93,3207.00
1771.30,3120.00
1772.67,3103.00
1774.05,3143.00
1775.41,3053.00
1776.78,3066.00
1778.15,2947.00
1779.52,3016.00
1780.88,2998.00
1782.25,2975.00
1783.61,2939.00
1784.97,2882.00
1786.33,2979.00
1787.69,2901.00
1789.05,2941.00
1790.41,2920.00
1791.77,2895.00
1793.13,2863.00
1794.48,2882.00
1795.84,2836.00
1797.19,2832.00
1798.54,2848.00
1799.89,2851.00
1801.25,2785.00
1802.59,2794.00
1803.94,2806.00
1805.29,2780.00
1806.64,2783.00
1807.98,2760.00
1809.33,2751.00
1810.67,2736.00
1812.01,2705.00
1813.36,2705.00
1814.70,2731.00
1816.04,2688.00
1817.37,2703.00
1818.71,2648.00
1820.05,2686.00
1821.38,2676.00
1822.72,2684.00
1824.05,2696.00
1825.39,2697.00
1826.72,2629.00
1828.05,2637.00
1829.38,2582.00
1830.71,2593.00
1832.03,2561.00
1833.36,2558.00
1834.69,2561.00
1836.01,2536.00
1837.34,2544.00
1838.66,2528.00
1839.98,2507.00
1841.30,2515.00
1842.62,2530.00
1843.94,2480.00
1845.26,2524.00
1846.57,2469.00
1847.89,2458.00
1849.20,2469.00
1850.52,2485.00
1851.83,2447.00
1853.14,2399.00
1854.45,2397.00
1855.76,2461.00
1857.07,2384.00
1858.38,2333.00
1859.69,2380.00
1860.99,2353.00
1862.30,2327.00
1863.60,2311.00
1864.90,2338.00
1866.21,2366.00
1867.51,2327.00
1868.81,2328.00
1870.11,2289.00
1871.40,2260.00
1872.70,2322.00
1874.00,2347.00
1875.29,2239.00
1876.59,2223.00
1877.88,2239.00
1879.17,2232.00
1880.46,2224.00
1881.75,2247.00
1883.04,2182.00
1884.33,2208.00
1885.62,2204.00
1886.90,2252.00
1888.19,2161.00
1889.47,2182.00
1890.75,2197.00
1892.04,2163.00
1893.32,2159.00
1894.60,2146.00
1895.88,2123.00
1897.15,2119.00
1898.43,2119.00
1899.71,2112.00
1900.98,2076.00
1902.26,2093.00
1903.53,2097.00
1904.80,2028.00
1906.07,2076.00
1907.34,2020.00
1908.61,2056.00
1909.88,2027.00
1911.15,2009.00
1912.41,1986.00
1913.68,2055.00
1914.94,2026.00
1916.21,1992.00
1917.47,2000.00
1918.73,2024.00
1919.99,1965.00
1921.25,1979.00
1922.51,1984.00
1923.76,1977.00
1925.02,1969.00
1926.28,1946.00
1927.53,1980.00
1928.78,1908.00
1930.04,1916.00
1931.29,1944.00
1932.54,1891.00
1933.79,1875.00
1935.03,1893.00
1936.28,1868.00
1937.53,1858.00
1938.77,1861.00
1940.02,1831.00
1941.26,1809.00
1942.50,1841.00
1943.75,1823.00
1944.99,1813.00
1946.22,1769.00
1947.46,1760.00
1948.70,1737.00
1949.94,1733.00
1951.17,1712.00
1952.41,1756.00
1953.64,1732.00
1954.87,1693.00
1956.10,1676.00
1957.33,1693.00
1958.56,1672.00
1959.79,1716.00
1961.02,1702.00
1962.25,1651.00
1963.47,1651.00
1964.70,1615.00
1965.92,1609.00
1967.14,1638.00
1968.36,1643.00
1969.58,1621.00
1970.80,1640.00
1972.02,1626.00
1973.24,1594.00
1974.46,1622.00
1975.67,1625.00
1976.89,1585.00
1978.10,1572.00
1979.31,1543.00
1980.52,1580.00
1981.73,1567.00
1982.94,1581.00
1984.15,1525.00
1985.36,1558.00
1986.57,1539.00
1987.77,1528.00
1988.98,1484.00
1990.18,1495.00
1991.38,1536.00
1992.58,1438.00
1993.78,1431.00
1994.98,1437.00
1996.18,1508.00
1997.38,1435.00
1998.58,1474.00
1999.77,1475.00
2000.97,1435.00
2002.16,1422.00
