Integration Time,200
Timestamp,2023-07-10 13_40_31.755000
Note,
Temperature,9.96
CCD C0,801.50982666
CCD C1,0.141540005803
CCD C2,-5.58820011065e-06
CCD C3,-8.47330028364e-09
CCD Offset,0
CCD Gain,NA
Laser Wavelength,785.0
Laser Enable,0
Laser Power,100
Laser Temperature,0.00
Pixel Count,1024

Wavenumber,Spectrum
262.40,-91.00
264.60,-82.00
266.80,-63.00
269.01,-77.00
271.21,-69.00
273.40,-92.00
275.60,-74.00
277.80,-80.00
280.00,-89.00
282.19,-78.00
284.38,-73.00
286.58,-69.00
288.77,-71.00
290.96,-36.00
293.15,-31.00
295.34,8.00
297.53,9.00
299.72,49.00
301.90,-16.00
304.09,102.00
306.27,207.00
308.46,252.00
310.64,342.00
312.82,425.00
315.00,488.00
317.18,563.00
319.36,616.00
321.54,636.00
323.72,707.00
325.89,678.00
328.07,673.00
330.24,636.00
332.42,636.00
334.59,676.00
336.76,643.00
338.93,656.00
341.10,655.00
343.27,618.00
345.43,607.00
347.60,590.00
349.77,600.00
351.93,619.00
354.09,616.00
356.26,647.00
358.42,633.00
360.58,609.00
362.74,621.00
364.90,635.00
367.06,615.00
369.21,572.00
371.37,660.00
373.52,702.00
375.68,738.00
377.83,673.00
379.98,731.00
382.13,698.00
384.28,736.00
386.43,696.00
388.58,746.00
390.73,724.00
392.87,706.00
395.02,747.00
397.16,725.00
399.31,740.00
401.45,706.00
403.59,717.00
405.73,744.00
407.87,786.00
410.01,763.00
412.15,752.00
414.28,759.00
416.42,797.00
418.55,757.00
420.69,767.00
422.82,813.00
424.95,792.00
427.08,763.00
429.21,763.00
431.34,765.00
433.47,748.00
435.60,791.00
437.72,757.00
439.85,790.00
441.97,788.00
444.10,813.00
446.22,807.00
448.34,818.00
450.46,826.00
452.58,810.00
454.70,765.00
456.81,777.00
458.93,808.00
461.05,764.00
463.16,744.00
465.27,763.00
467.39,763.00
469.50,443.00
471.61,782.00
473.72,776.00
475.83,763.00
477.93,806.00
480.04,771.00
482.15,793.00
484.25,816.00
486.35,834.00
488.46,756.00
490.56,757.00
492.66,761.00
494.76,769.00
496.86,797.00
498.96,822.00
501.05,877.00
503.15,854.00
505.24,909.00
507.34,907.00
509.43,1002.00
511.52,1000.00
513.61,1075.00
515.70,1198.00
517.79,1501.00
519.88,1796.00
521.97,2165.00
524.06,2175.00
526.14,1870.00
528.23,1503.00
530.31,1171.00
532.39,1101.00
534.47,1115.00
536.55,1136.00
538.63,1067.00
540.71,1008.00
542.79,1015.00
544.87,1031.00
546.94,1056.00
549.02,1145.00
551.09,1376.00
553.16,1706.00
555.23,1900.00
557.30,1927.00
559.37,1857.00
561.44,1625.00
563.51,1495.00
565.58,1376.00
567.64,1246.00
569.71,1122.00
571.77,1026.00
573.84,1018.00
575.90,993.00
577.96,1018.00
580.02,1048.00
582.08,1025.00
584.14,1008.00
586.19,995.00
588.25,974.00
590.30,920.00
592.36,968.00
594.41,907.00
596.46,930.00
598.51,1003.00
600.56,976.00
602.61,1003.00
604.66,976.00
606.71,970.00
608.76,1056.00
610.80,1109.00
612.85,1155.00
614.89,1238.00
616.93,1299.00
618.97,1185.00
621.01,1098.00
623.05,1035.00
625.09,1006.00
627.13,988.00
629.17,987.00
631.20,1018.00
633.24,1040.00
635.27,1090.00
637.30,1145.00
639.33,1174.00
641.36,1174.00
643.39,1126.00
645.42,1052.00
647.45,1057.00
649.48,1029.00
651.50,959.00
653.53,947.00
655.55,969.00
657.58,950.00
659.60,937.00
661.62,981.00
663.64,968.00
665.66,959.00
667.68,978.00
669.69,988.00
671.71,995.00
673.72,1009.00
675.74,1020.00
677.75,1036.00
679.76,1031.00
681.77,1069.00
683.78,1062.00
685.79,1050.00
687.80,1066.00
689.81,1076.00
691.81,1086.00
693.82,1057.00
695.82,1075.00
697.83,1052.00
699.83,1081.00
701.83,1123.00
703.83,1071.00
705.83,1086.00
707.83,1125.00
709.83,1190.00
711.82,1261.00
713.82,1444.00
715.81,1450.00
717.81,1376.00
719.80,1229.00
721.79,1122.00
723.78,1016.00
725.77,1001.00
727.76,997.00
729.75,1054.00
731.73,1046.00
733.72,1062.00
735.70,1046.00
737.69,1036.00
739.67,1031.00
741.65,1038.00
743.63,1071.00
745.61,1073.00
747.59,1083.00
749.57,1105.00
751.55,1086.00
753.52,1101.00
755.50,1122.00
757.47,1107.00
759.44,1115.00
761.41,1000.00
763.39,1168.00
765.36,924.00
767.32,1179.00
769.29,1220.00
771.26,1242.00
773.22,1248.00
775.19,1244.00
777.15,1191.00
779.12,1208.00
781.08,1164.00
783.04,1170.00
785.00,1158.00
786.96,1162.00
788.92,1219.00
790.87,1265.00
792.83,1419.00
794.79,1541.00
796.74,1659.00
798.69,1786.00
800.64,1799.00
802.60,1773.00
804.55,1765.00
806.50,1623.00
808.44,1534.00
810.39,1446.00
812.34,1360.00
814.28,1301.00
816.23,1347.00
818.17,1444.00
820.11,1480.00
822.05,1501.00
823.99,1457.00
825.93,1379.00
827.87,1354.00
829.81,1282.00
831.75,1270.00
833.68,1259.00
835.62,1236.00
837.55,1254.00
839.48,1250.00
841.41,1251.00
843.34,1225.00
845.27,1227.00
847.20,1219.00
849.13,1240.00
851.06,1185.00
852.98,1187.00
854.91,1219.00
856.83,1214.00
858.75,1243.00
860.67,1272.00
862.59,1298.00
864.51,1299.00
866.43,1218.00
868.35,1210.00
870.27,1185.00
872.18,1158.00
874.10,1103.00
876.01,1128.00
877.92,1106.00
879.84,1098.00
881.75,1132.00
883.66,1172.00
885.56,1152.00
887.47,1208.00
889.38,1195.00
891.28,1221.00
893.19,1263.00
895.09,1263.00
897.00,1324.00
898.90,1334.00
900.80,1347.00
902.70,1359.00
904.60,1387.00
906.50,1435.00
908.39,1389.00
910.29,1452.00
912.18,1439.00
914.08,1436.00
915.97,1404.00
917.86,1417.00
919.75,1402.00
921.64,1435.00
923.53,1468.00
925.42,1550.00
927.31,1543.00
929.19,1667.00
931.08,1836.00
932.96,1936.00
934.85,2113.00
936.73,2170.00
938.61,2258.00
940.49,2154.00
942.37,1980.00
944.25,1760.00
946.12,1623.00
948.00,1491.00
949.87,1424.00
951.75,1383.00
953.62,1269.00
955.49,1280.00
957.37,1264.00
959.24,1204.00
961.10,1253.00
962.97,1217.00
964.84,1182.00
966.71,1176.00
968.57,1168.00
970.44,1153.00
972.30,1191.00
974.16,1181.00
976.02,1182.00
977.88,1185.00
979.74,1178.00
981.60,1183.00
983.46,1231.00
985.31,1261.00
987.17,1236.00
989.02,1307.00
990.88,1348.00
992.73,1400.00
994.58,1450.00
996.43,1511.00
998.28,1634.00
1000.13,1739.00
1001.98,1792.00
1003.82,1813.00
1005.67,1770.00
1007.51,1665.00
1009.36,1630.00
1011.20,1575.00
1013.04,1522.00
1014.88,1518.00
1016.72,1537.00
1018.56,1553.00
1020.40,1585.00
1022.23,1630.00
1024.07,1461.00
1025.90,1514.00
1027.74,1440.00
1029.57,1471.00
1031.40,1471.00
1033.23,1518.00
1035.06,1545.00
1036.89,1593.00
1038.72,1657.00
1040.54,1811.00
1042.37,1866.00
1044.19,2015.00
1046.02,2091.00
1047.84,2188.00
1049.66,2262.00
1051.48,2275.00
1053.30,2294.00
1055.12,2305.00
1056.94,2241.00
1058.76,2164.00
1060.57,2132.00
1062.39,2150.00
1064.20,2097.00
1066.01,2026.00
1067.82,1905.00
1069.63,1796.00
1071.44,1748.00
1073.25,1721.00
1075.06,1666.00
1076.87,1690.00
1078.67,1728.00
1080.48,1825.00
1082.28,1883.00
1084.08,1952.00
1085.89,2020.00
1087.69,2102.00
1089.49,2163.00
1091.29,2272.00
1093.08,2269.00
1094.88,2281.00
1096.68,2307.00
1098.47,2305.00
1100.27,2328.00
1102.06,2363.00
1103.85,2310.00
1105.64,2330.00
1107.43,2302.00
1109.22,2380.00
1111.01,2414.00
1112.79,2456.00
1114.58,2587.00
1116.37,2709.00
1118.15,2836.00
1119.93,3015.00
1121.71,3011.00
1123.49,2895.00
1125.27,2736.00
1127.05,2621.00
1128.83,2528.00
1130.61,2517.00
1132.38,2640.00
1134.16,2578.00
1135.93,2532.00
1137.71,2406.00
1139.48,2246.00
1141.25,2092.00
1143.02,1964.00
1144.79,1899.00
1146.56,1868.00
1148.32,1912.00
1150.09,1981.00
1151.86,2064.00
1153.62,2165.00
1155.38,2182.00
1157.14,2245.00
1158.91,2161.00
1160.67,2110.00
1162.42,2137.00
1164.18,2205.00
1165.94,2234.00
1167.70,2174.00
1169.45,2186.00
1171.21,2132.00
1172.96,2159.00
1174.71,2232.00
1176.46,2262.00
1178.21,2268.00
1179.96,2217.00
1181.71,2150.00
1183.46,1984.00
1185.20,1859.00
1186.95,1816.00
1188.69,1780.00
1190.44,1779.00
1192.18,1750.00
1193.92,1856.00
1195.66,2072.00
1197.40,2245.00
1199.14,2628.00
1200.87,3023.00
1202.61,3592.00
1204.35,3955.00
1206.08,4092.00
1207.81,3925.00
1209.55,3619.00
1211.28,3144.00
1213.01,2650.00
1214.74,2220.00
1216.46,2007.00
1218.19,1874.00
1219.92,1776.00
1221.64,1725.00
1223.37,1724.00
1225.09,1718.00
1226.81,1792.00
1228.53,1839.00
1230.26,1875.00
1231.97,1948.00
1233.69,1973.00
1235.41,1999.00
1237.13,2020.00
1238.84,1963.00
1240.56,1858.00
1242.27,1827.00
1243.98,1779.00
1245.69,1773.00
1247.40,1771.00
1249.11,1872.00
1250.82,1864.00
1252.53,1901.00
1254.24,1923.00
1255.94,1866.00
1257.65,1828.00
1259.35,1862.00
1261.05,1919.00
1262.75,1906.00
1264.45,1885.00
1266.15,1927.00
1267.85,1864.00
1269.55,1900.00
1271.25,1936.00
1272.94,2005.00
1274.64,1991.00
1276.33,2037.00
1278.02,2007.00
1279.71,2058.00
1281.40,2056.00
1283.09,2051.00
1284.78,2039.00
1286.47,1928.00
1288.16,1896.00
1289.84,1835.00
1291.53,1834.00
1293.21,1781.00
1294.89,1819.00
1296.57,1771.00
1298.25,1905.00
1299.93,1859.00
1301.61,1838.00
1303.29,1780.00
1304.97,1673.00
1306.64,1653.00
1308.32,1594.00
1309.99,1558.00
1311.66,1520.00
1313.33,1527.00
1315.01,1478.00
1316.67,1491.00
1318.34,1413.00
1320.01,1432.00
1321.68,1467.00
1323.34,1472.00
1325.01,1463.00
1326.67,1558.00
1328.33,1514.00
1330.00,1549.00
1331.66,1576.00
1333.32,1554.00
1334.98,1613.00
1336.63,1625.00
1338.29,1729.00
1339.95,1786.00
1341.60,1843.00
1343.25,1941.00
1344.91,1982.00
1346.56,2057.00
1348.21,2011.00
1349.86,2012.00
1351.51,1979.00
1353.16,1961.00
1354.80,2019.00
1356.45,2047.00
1358.09,2099.00
1359.74,2247.00
1361.38,2454.00
1363.02,2548.00
1364.66,2762.00
1366.30,2909.00
1367.94,2905.00
1369.58,2975.00
1371.22,2821.00
1372.85,2701.00
1374.49,2551.00
1376.12,2481.00
1377.75,2437.00
1379.38,2457.00
1381.02,2424.00
1382.65,2376.00
1384.27,2285.00
1385.90,2211.00
1387.53,2081.00
1389.15,1990.00
1390.78,1971.00
1392.40,1969.00
1394.03,2018.00
1395.65,2047.00
1397.27,2149.00
1398.89,2184.00
1400.51,2086.00
1402.13,2328.00
1403.74,2386.00
1405.36,2440.00
1406.97,2507.00
1408.59,2483.00
1410.20,2471.00
1411.81,2460.00
1413.42,2374.00
1415.03,2363.00
1416.64,2277.00
1418.25,2140.00
1419.86,2022.00
1421.46,1895.00
1423.07,1811.00
1424.67,1770.00
1426.28,1709.00
1427.88,1625.00
1429.48,1674.00
1431.08,1630.00
1432.68,1577.00
1434.28,1621.00
1435.87,1590.00
1437.47,1596.00
1439.06,1581.00
1440.66,1556.00
1442.25,1489.00
1443.84,1466.00
1445.43,1433.00
1447.02,1368.00
1448.61,1380.00
1450.20,1392.00
1451.79,1313.00
1453.37,1334.00
1454.96,1385.00
1456.54,1299.00
1458.13,1444.00
1459.71,1447.00
1461.29,1558.00
1462.87,1787.00
1464.45,1969.00
1466.03,2087.00
1467.60,2159.00
1469.18,2021.00
1470.76,1840.00
1472.33,1626.00
1473.90,1438.00
1475.48,1368.00
1477.05,1229.00
1478.62,1233.00
1480.19,1250.00
1481.75,1269.00
1483.32,1284.00
1484.89,1256.00
1486.45,1265.00
1488.02,1183.00
1489.58,1120.00
1491.14,1119.00
1492.70,1061.00
1494.26,1109.00
1495.82,1112.00
1497.38,1061.00
1498.94,1103.00
1500.50,1108.00
1502.05,1138.00
1503.61,1161.00
1505.16,1175.00
1506.71,1169.00
1508.26,1212.00
1509.81,1263.00
1511.36,1269.00
1512.91,1366.00
1514.46,1354.00
1516.00,1419.00
1517.55,1406.00
1519.09,1573.00
1520.64,1646.00
1522.18,1685.00
1523.72,1782.00
1525.26,1798.00
1526.80,1809.00
1528.34,1754.00
1529.88,1685.00
1531.41,1617.00
1532.95,1531.00
1534.48,1499.00
1536.02,1339.00
1537.55,1326.00
1539.08,1261.00
1540.61,1214.00
1542.14,1166.00
1543.67,1183.00
1545.19,1144.00
1546.72,1154.00
1548.25,1134.00
1549.77,1090.00
1551.29,1097.00
1552.82,1048.00
1554.34,1029.00
1555.86,1022.00
1557.38,986.00
1558.90,961.00
1560.41,976.00
1561.93,924.00
1563.45,913.00
1564.96,905.00
1566.47,889.00
1567.99,875.00
1569.50,907.00
1571.01,945.00
1572.52,915.00
1574.03,967.00
1575.53,963.00
1577.04,1018.00
1578.55,1064.00
1580.05,1103.00
1581.55,1092.00
1583.06,1153.00
1584.56,1122.00
1586.06,1104.00
1587.56,1063.00
1589.06,1075.00
1590.56,1007.00
1592.05,968.00
1593.55,930.00
1595.04,917.00
1596.54,879.00
1598.03,929.00
1599.52,925.00
1601.01,931.00
1602.50,892.00
1603.99,891.00
1605.48,839.00
1606.96,837.00
1608.45,854.00
1609.93,671.00
1611.42,833.00
1612.90,843.00
1614.38,831.00
1615.86,793.00
1617.34,787.00
1618.82,772.00
1620.30,750.00
1621.78,725.00
1623.25,726.00
1624.73,706.00
1626.20,682.00
1627.67,675.00
1629.14,670.00
1630.62,681.00
1632.08,709.00
1633.55,594.00
1635.02,670.00
1636.49,645.00
1637.95,673.00
1639.42,643.00
1640.88,683.00
1642.35,626.00
1643.81,658.00
1645.27,635.00
1646.73,631.00
1648.19,646.00
1649.64,657.00
1651.10,647.00
1652.56,641.00
1654.01,652.00
1655.47,607.00
1656.92,648.00
1658.37,584.00
1659.82,622.00
1661.27,621.00
1662.72,606.00
1664.17,625.00
1665.62,624.00
1667.06,554.00
1668.51,597.00
1669.95,603.00
1671.39,603.00
1672.84,618.00
1674.28,573.00
1675.72,498.00
1677.16,590.00
1678.59,580.00
1680.03,557.00
1681.47,599.00
1682.90,567.00
1684.34,576.00
1685.77,577.00
1687.20,554.00
1688.63,592.00
1690.06,586.00
1691.49,556.00
1692.92,537.00
1694.35,575.00
1695.77,546.00
1697.20,533.00
1698.62,534.00
1700.04,527.00
1701.47,525.00
1702.89,490.00
1704.31,527.00
1705.73,470.00
1707.14,468.00
1708.56,487.00
1709.98,501.00
1711.39,497.00
1712.81,496.00
1714.22,494.00
1715.63,507.00
1717.04,498.00
1718.45,504.00
1719.86,518.00
1721.27,487.00
1722.68,466.00
1724.08,493.00
1725.49,496.00
1726.89,487.00
1728.30,506.00
1729.70,506.00
1731.10,485.00
1732.50,508.00
1733.90,468.00
1735.30,472.00
1736.69,460.00
1738.09,468.00
1739.49,470.00
1740.88,462.00
1742.27,462.00
1743.67,454.00
1745.06,436.00
1746.45,429.00
1747.84,466.00
1749.23,422.00
1750.61,447.00
1752.00,424.00
1753.38,441.00
1754.77,432.00
1756.15,473.00
1757.53,447.00
1758.92,445.00
1760.30,437.00
1761.68,432.00
1763.05,441.00
1764.43,392.00
1765.81,415.00
1767.18,437.00
1768.56,403.00
1769.93,424.00
1771.30,407.00
1772.67,426.00
1774.05,396.00
1775.41,390.00
1776.78,414.00
1778.15,386.00
1779.52,377.00
1780.88,371.00
1782.25,383.00
1783.61,367.00
1784.97,373.00
1786.33,378.00
1787.69,369.00
1789.05,381.00
1790.41,358.00
1791.77,382.00
1793.13,369.00
1794.48,373.00
1795.84,363.00
1797.19,344.00
1798.54,362.00
1799.89,359.00
1801.25,338.00
1802.59,358.00
1803.94,338.00
1805.29,349.00
1806.64,342.00
1807.98,338.00
1809.33,352.00
1810.67,356.00
1812.01,346.00
1813.36,358.00
1814.70,342.00
1816.04,329.00
1817.37,340.00
1818.71,333.00
1820.05,339.00
1821.38,338.00
1822.72,361.00
1824.05,343.00
1825.39,344.00
1826.72,339.00
1828.05,322.00
1829.38,324.00
1830.71,306.00
1832.03,352.00
1833.36,315.00
1834.69,324.00
1836.01,326.00
1837.34,341.00
1838.66,312.00
1839.98,302.00
1841.30,299.00
1842.62,322.00
1843.94,285.00
1845.26,327.00
1846.57,291.00
1847.89,295.00
1849.20,270.00
1850.52,310.00
1851.83,303.00
1853.14,299.00
1854.45,284.00
1855.76,296.00
1857.07,267.00
1858.38,276.00
1859.69,272.00
1860.99,295.00
1862.30,271.00
1863.60,268.00
1864.90,291.00
1866.21,306.00
1867.51,289.00
1868.81,304.00
1870.11,255.00
1871.40,259.00
1872.70,296.00
1874.00,279.00
1875.29,293.00
1876.59,285.00
1877.88,297.00
1879.17,261.00
1880.46,276.00
1881.75,286.00
1883.04,278.00
1884.33,273.00
1885.62,281.00
1886.90,308.00
1888.19,253.00
1889.47,272.00
1890.75,267.00
1892.04,279.00
1893.32,255.00
1894.60,289.00
1895.88,268.00
1897.15,270.00
1898.43,283.00
1899.71,284.00
1900.98,257.00
1902.26,270.00
1903.53,265.00
1904.80,249.00
1906.07,232.00
1907.34,224.00
1908.61,258.00
1909.88,251.00
1911.15,192.00
1912.41,255.00
1913.68,251.00
1914.94,268.00
1916.21,263.00
1917.47,257.00
1918.73,238.00
1919.99,225.00
1921.25,248.00
1922.51,247.00
1923.76,265.00
1925.02,245.00
1926.28,251.00
1927.53,245.00
1928.78,251.00
1930.04,248.00
1931.29,239.00
1932.54,227.00
1933.79,215.00
1935.03,228.00
1936.28,230.00
1937.53,215.00
1938.77,225.00
1940.02,233.00
1941.26,211.00
1942.50,221.00
1943.75,261.00
1944.99,226.00
1946.22,221.00
1947.46,207.00
1948.70,215.00
1949.94,209.00
1951.17,194.00
1952.41,223.00
1953.64,196.00
1954.87,197.00
1956.10,201.00
1957.33,175.00
1958.56,188.00
1959.79,194.00
1961.02,213.00
1962.25,188.00
1963.47,189.00
1964.70,178.00
1965.92,171.00
1967.14,183.00
1968.36,179.00
1969.58,179.00
1970.80,198.00
1972.02,173.00
1973.24,188.00
1974.46,194.00
1975.67,171.00
1976.89,160.00
1978.10,185.00
1979.31,166.00
1980.52,177.00
1981.73,173.00
1982.94,173.00
1984.15,161.00
1985.36,179.00
1986.57,170.00
1987.77,181.00
1988.98,155.00
1990.18,157.00
1991.38,162.00
1992.58,135.00
1993.78,145.00
1994.98,135.00
1996.18,163.00
1997.38,158.00
1998.58,152.00
1999.77,152.00
2000.97,135.00
2002.16,107.00
