Integration Time,1000
Timestamp,2023-07-10 13_47_03.144000
Note,
Temperature,9.95
CCD C0,801.50982666
CCD C1,0.141540005803
CCD C2,-5.58820011065e-06
CCD C3,-8.47330028364e-09
CCD Offset,0
CCD Gain,NA
Laser Wavelength,785.0
Laser Enable,0
Laser Power,100
Laser Temperature,0.00
Pixel Count,1024

Wavenumber,Spectrum
262.40,-2.00
264.60,-2.00
266.80,4.00
269.01,11.00
271.21,19.00
273.40,0.00
275.60,9.00
277.80,3.00
280.00,-9.00
282.19,12.00
284.38,4.00
286.58,0.00
288.77,20.00
290.96,28.00
293.15,28.00
295.34,44.00
297.53,36.00
299.72,63.00
301.90,81.00
304.09,106.00
306.27,133.00
308.46,149.00
310.64,184.00
312.82,213.00
315.00,258.00
317.18,312.00
319.36,319.00
321.54,320.00
323.72,332.00
325.89,356.00
328.07,365.00
330.24,356.00
332.42,337.00
334.59,369.00
336.76,343.00
338.93,355.00
341.10,354.00
343.27,342.00
345.43,348.00
347.60,323.00
349.77,337.00
351.93,349.00
354.09,359.00
356.26,367.00
358.42,386.00
360.58,364.00
362.74,352.00
364.90,334.00
367.06,362.00
369.21,369.00
371.37,355.00
373.52,346.00
375.68,390.00
377.83,365.00
379.98,354.00
382.13,391.00
384.28,388.00
386.43,380.00
388.58,377.00
390.73,374.00
392.87,371.00
395.02,359.00
397.16,379.00
399.31,352.00
401.45,380.00
403.59,375.00
405.73,356.00
407.87,365.00
410.01,396.00
412.15,371.00
414.28,401.00
416.42,390.00
418.55,388.00
420.69,384.00
422.82,406.00
424.95,379.00
427.08,394.00
429.21,390.00
431.34,396.00
433.47,366.00
435.60,384.00
437.72,369.00
439.85,388.00
441.97,365.00
444.10,375.00
446.22,369.00
448.34,371.00
450.46,390.00
452.58,378.00
454.70,371.00
456.81,383.00
458.93,374.00
461.05,372.00
463.16,369.00
465.27,380.00
467.39,371.00
469.50,325.00
471.61,396.00
473.72,369.00
475.83,358.00
477.93,388.00
480.04,396.00
482.15,359.00
484.25,397.00
486.35,373.00
488.46,392.00
490.56,398.00
492.66,369.00
494.76,389.00
496.86,405.00
498.96,419.00
501.05,408.00
503.15,401.00
505.24,409.00
507.34,398.00
509.43,414.00
511.52,454.00
513.61,453.00
515.70,483.00
517.79,554.00
519.88,660.00
521.97,699.00
524.06,754.00
526.14,674.00
528.23,616.00
530.31,542.00
532.39,496.00
534.47,478.00
536.55,459.00
538.63,441.00
540.71,433.00
542.79,428.00
544.87,428.00
546.94,437.00
549.02,479.00
551.09,557.00
553.16,672.00
555.23,724.00
557.30,681.00
559.37,628.00
561.44,578.00
563.51,540.00
565.58,503.00
567.64,501.00
569.71,462.00
571.77,411.00
573.84,428.00
575.90,405.00
577.96,390.00
580.02,426.00
582.08,424.00
584.14,413.00
586.19,380.00
588.25,409.00
590.30,390.00
592.36,369.00
594.41,394.00
596.46,380.00
598.51,407.00
600.56,382.00
602.61,407.00
604.66,388.00
606.71,418.00
608.76,421.00
610.80,453.00
612.85,480.00
614.89,494.00
616.93,457.00
618.97,458.00
621.01,447.00
623.05,413.00
625.09,420.00
627.13,402.00
629.17,407.00
631.20,411.00
633.24,430.00
635.27,418.00
637.30,430.00
639.33,449.00
641.36,457.00
643.39,434.00
645.42,418.00
647.45,426.00
649.48,410.00
651.50,413.00
653.53,401.00
655.55,419.00
657.58,396.00
659.60,410.00
661.62,401.00
663.64,399.00
665.66,400.00
667.68,407.00
669.69,409.00
671.71,403.00
673.72,404.00
675.74,411.00
677.75,411.00
679.76,409.00
681.77,416.00
683.78,430.00
685.79,415.00
687.80,427.00
689.81,417.00
691.81,407.00
693.82,441.00
695.82,433.00
697.83,392.00
699.83,413.00
701.83,415.00
703.83,415.00
705.83,411.00
707.83,438.00
709.83,426.00
711.82,420.00
713.82,454.00
715.81,464.00
717.81,438.00
719.80,449.00
721.79,412.00
723.78,371.00
725.77,358.00
727.76,386.00
729.75,379.00
731.73,379.00
733.72,384.00
735.70,394.00
737.69,376.00
739.67,388.00
741.65,405.00
743.63,400.00
745.61,380.00
747.59,385.00
749.57,415.00
751.55,405.00
753.52,399.00
755.50,375.00
757.47,387.00
759.44,388.00
761.41,380.00
763.39,422.00
765.36,350.00
767.32,415.00
769.29,421.00
771.26,407.00
773.22,392.00
775.19,411.00
777.15,388.00
779.12,398.00
781.08,403.00
783.04,400.00
785.00,403.00
786.96,395.00
788.92,401.00
790.87,395.00
792.83,453.00
794.79,442.00
796.74,494.00
798.69,502.00
800.64,494.00
802.60,504.00
804.55,533.00
806.50,521.00
808.44,490.00
810.39,459.00
812.34,464.00
814.28,433.00
816.23,451.00
818.17,461.00
820.11,472.00
822.05,460.00
823.99,452.00
825.93,470.00
827.87,447.00
829.81,407.00
831.75,412.00
833.68,415.00
835.62,396.00
837.55,417.00
839.48,390.00
841.41,422.00
843.34,399.00
845.27,403.00
847.20,392.00
849.13,403.00
851.06,401.00
852.98,396.00
854.91,390.00
856.83,411.00
858.75,400.00
860.67,388.00
862.59,402.00
864.51,384.00
866.43,407.00
868.35,392.00
870.27,393.00
872.18,365.00
874.10,373.00
876.01,373.00
877.92,404.00
879.84,379.00
881.75,388.00
883.66,399.00
885.56,380.00
887.47,371.00
889.38,398.00
891.28,396.00
893.19,384.00
895.09,397.00
897.00,397.00
898.90,409.00
900.80,400.00
902.70,411.00
904.60,426.00
906.50,411.00
908.39,425.00
910.29,428.00
912.18,411.00
914.08,434.00
915.97,426.00
917.86,424.00
919.75,434.00
921.64,430.00
923.53,426.00
925.42,479.00
927.31,454.00
929.19,478.00
931.08,508.00
932.96,540.00
934.85,593.00
936.73,622.00
938.61,634.00
940.49,569.00
942.37,533.00
944.25,476.00
946.12,460.00
948.00,433.00
949.87,422.00
951.75,407.00
953.62,379.00
955.49,380.00
957.37,425.00
959.24,374.00
961.10,394.00
962.97,401.00
964.84,390.00
966.71,381.00
968.57,415.00
970.44,371.00
972.30,392.00
974.16,369.00
976.02,385.00
977.88,378.00
979.74,377.00
981.60,397.00
983.46,388.00
985.31,380.00
987.17,380.00
989.02,402.00
990.88,388.00
992.73,391.00
994.58,375.00
996.43,425.00
998.28,451.00
1000.13,468.00
1001.98,451.00
1003.82,417.00
1005.67,444.00
1007.51,415.00
1009.36,433.00
1011.20,426.00
1013.04,422.00
1014.88,420.00
1016.72,432.00
1018.56,442.00
1020.40,425.00
1022.23,445.00
1024.07,451.00
1025.90,424.00
1027.74,432.00
1029.57,423.00
1031.40,407.00
1033.23,400.00
1035.06,432.00
1036.89,425.00
1038.72,409.00
1040.54,449.00
1042.37,489.00
1044.19,493.00
1046.02,506.00
1047.84,501.00
1049.66,519.00
1051.48,504.00
1053.30,520.00
1055.12,513.00
1056.94,510.00
1058.76,485.00
1060.57,487.00
1062.39,482.00
1064.20,470.00
1066.01,455.00
1067.82,447.00
1069.63,438.00
1071.44,447.00
1073.25,430.00
1075.06,464.00
1076.87,436.00
1078.67,455.00
1080.48,463.00
1082.28,457.00
1084.08,495.00
1085.89,479.00
1087.69,514.00
1089.49,505.00
1091.29,529.00
1093.08,521.00
1094.88,515.00
1096.68,519.00
1098.47,521.00
1100.27,511.00
1102.06,495.00
1103.85,484.00
1105.64,462.00
1107.43,485.00
1109.22,493.00
1111.01,517.00
1112.79,521.00
1114.58,545.00
1116.37,614.00
1118.15,662.00
1119.93,731.00
1121.71,728.00
1123.49,658.00
1125.27,607.00
1127.05,572.00
1128.83,592.00
1130.61,590.00
1132.38,625.00
1134.16,641.00
1135.93,635.00
1137.71,614.00
1139.48,588.00
1141.25,534.00
1143.02,506.00
1144.79,457.00
1146.56,441.00
1148.32,442.00
1150.09,449.00
1151.86,449.00
1153.62,483.00
1155.38,460.00
1157.14,453.00
1158.91,464.00
1160.67,432.00
1162.42,438.00
1164.18,440.00
1165.94,455.00
1167.70,464.00
1169.45,457.00
1171.21,437.00
1172.96,470.00
1174.71,461.00
1176.46,466.00
1178.21,453.00
1179.96,447.00
1181.71,445.00
1183.46,426.00
1185.20,434.00
1186.95,412.00
1188.69,410.00
1190.44,415.00
1192.18,415.00
1193.92,443.00
1195.66,491.00
1197.40,559.00
1199.14,626.00
1200.87,738.00
1202.61,868.00
1204.35,957.00
1206.08,986.00
1207.81,971.00
1209.55,858.00
1211.28,768.00
1213.01,595.00
1214.74,539.00
1216.46,497.00
1218.19,445.00
1219.92,433.00
1221.64,434.00
1223.37,415.00
1225.09,405.00
1226.81,426.00
1228.53,420.00
1230.26,428.00
1231.97,437.00
1233.69,447.00
1235.41,457.00
1237.13,445.00
1238.84,437.00
1240.56,422.00
1242.27,392.00
1243.98,407.00
1245.69,401.00
1247.40,426.00
1249.11,437.00
1250.82,393.00
1252.53,407.00
1254.24,419.00
1255.94,382.00
1257.65,397.00
1259.35,401.00
1261.05,401.00
1262.75,420.00
1264.45,420.00
1266.15,409.00
1267.85,438.00
1269.55,434.00
1271.25,449.00
1272.94,468.00
1274.64,452.00
1276.33,454.00
1278.02,483.00
1279.71,458.00
1281.40,477.00
1283.09,447.00
1284.78,460.00
1286.47,434.00
1288.16,447.00
1289.84,403.00
1291.53,417.00
1293.21,407.00
1294.89,430.00
1296.57,422.00
1298.25,432.00
1299.93,438.00
1301.61,417.00
1303.29,420.00
1304.97,404.00
1306.64,390.00
1308.32,369.00
1309.99,373.00
1311.66,356.00
1313.33,356.00
1315.01,334.00
1316.67,334.00
1318.34,335.00
1320.01,333.00
1321.68,335.00
1323.34,325.00
1325.01,339.00
1326.67,327.00
1328.33,352.00
1330.00,352.00
1331.66,328.00
1333.32,354.00
1334.98,360.00
1336.63,369.00
1338.29,359.00
1339.95,384.00
1341.60,367.00
1343.25,390.00
1344.91,398.00
1346.56,415.00
1348.21,394.00
1349.86,409.00
1351.51,407.00
1353.16,403.00
1354.80,411.00
1356.45,432.00
1358.09,447.00
1359.74,468.00
1361.38,515.00
1363.02,531.00
1364.66,578.00
1366.30,611.00
1367.94,601.00
1369.58,649.00
1371.22,631.00
1372.85,628.00
1374.49,585.00
1376.12,582.00
1377.75,567.00
1379.38,584.00
1381.02,544.00
1382.65,563.00
1384.27,508.00
1385.90,465.00
1387.53,466.00
1389.15,453.00
1390.78,430.00
1392.40,433.00
1394.03,433.00
1395.65,440.00
1397.27,468.00
1398.89,496.00
1400.51,485.00
1402.13,506.00
1403.74,510.00
1405.36,507.00
1406.97,512.00
1408.59,529.00
1410.20,493.00
1411.81,453.00
1413.42,451.00
1415.03,413.00
1416.64,400.00
1418.25,390.00
1419.86,384.00
1421.46,359.00
1423.07,333.00
1424.67,331.00
1426.28,328.00
1427.88,314.00
1429.48,327.00
1431.08,333.00
1432.68,301.00
1434.28,318.00
1435.87,310.00
1437.47,300.00
1439.06,306.00
1440.66,303.00
1442.25,312.00
1443.84,285.00
1445.43,291.00
1447.02,263.00
1448.61,277.00
1450.20,291.00
1451.79,289.00
1453.37,271.00
1454.96,288.00
1456.54,318.00
1458.13,295.00
1459.71,333.00
1461.29,362.00
1462.87,417.00
1464.45,480.00
1466.03,502.00
1467.60,511.00
1469.18,449.00
1470.76,390.00
1472.33,348.00
1473.90,312.00
1475.48,280.00
1477.05,299.00
1478.62,272.00
1480.19,293.00
1481.75,299.00
1483.32,306.00
1484.89,280.00
1486.45,295.00
1488.02,289.00
1489.58,255.00
1491.14,257.00
1492.70,241.00
1494.26,253.00
1495.82,249.00
1497.38,243.00
1498.94,253.00
1500.50,274.00
1502.05,261.00
1503.61,297.00
1505.16,289.00
1506.71,279.00
1508.26,289.00
1509.81,296.00
1511.36,325.00
1512.91,329.00
1514.46,344.00
1516.00,345.00
1517.55,346.00
1519.09,371.00
1520.64,375.00
1522.18,373.00
1523.72,392.00
1525.26,388.00
1526.80,371.00
1528.34,361.00
1529.88,354.00
1531.41,348.00
1532.95,295.00
1534.48,318.00
1536.02,284.00
1537.55,272.00
1539.08,266.00
1540.61,263.00
1542.14,243.00
1543.67,255.00
1545.19,251.00
1546.72,249.00
1548.25,251.00
1549.77,293.00
1551.29,235.00
1552.82,243.00
1554.34,234.00
1555.86,246.00
1557.38,231.00
1558.90,247.00
1560.41,230.00
1561.93,222.00
1563.45,222.00
1564.96,232.00
1566.47,240.00
1567.99,248.00
1569.50,239.00
1571.01,247.00
1572.52,236.00
1574.03,244.00
1575.53,250.00
1577.04,249.00
1578.55,255.00
1580.05,270.00
1581.55,279.00
1583.06,264.00
1584.56,249.00
1586.06,265.00
1587.56,251.00
1589.06,240.00
1590.56,238.00
1592.05,247.00
1593.55,223.00
1595.04,217.00
1596.54,222.00
1598.03,248.00
1599.52,221.00
1601.01,255.00
1602.50,238.00
1603.99,213.00
1605.48,236.00
1606.96,215.00
1608.45,190.00
1609.93,240.00
1611.42,201.00
1612.90,210.00
1614.38,226.00
1615.86,200.00
1617.34,213.00
1618.82,201.00
1620.30,202.00
1621.78,183.00
1623.25,197.00
1624.73,194.00
1626.20,195.00
1627.67,183.00
1629.14,171.00
1630.62,167.00
1632.08,181.00
1633.55,173.00
1635.02,204.00
1636.49,173.00
1637.95,203.00
1639.42,193.00
1640.88,177.00
1642.35,173.00
1643.81,173.00
1645.27,184.00
1646.73,182.00
1648.19,190.00
1649.64,166.00
1651.10,187.00
1652.56,177.00
1654.01,167.00
1655.47,162.00
1656.92,169.00
1658.37,184.00
1659.82,177.00
1661.27,194.00
1662.72,178.00
1664.17,175.00
1665.62,175.00
1667.06,173.00
1668.51,157.00
1669.95,173.00
1671.39,165.00
1672.84,192.00
1674.28,177.00
1675.72,190.00
1677.16,200.00
1678.59,160.00
1680.03,197.00
1681.47,171.00
1682.90,168.00
1684.34,173.00
1685.77,177.00
1687.20,185.00
1688.63,162.00
1690.06,165.00
1691.49,179.00
1692.92,160.00
1694.35,158.00
1695.77,186.00
1697.20,173.00
1698.62,154.00
1700.04,162.00
1701.47,154.00
1702.89,146.00
1704.31,160.00
1705.73,162.00
1707.14,143.00
1708.56,148.00
1709.98,156.00
1711.39,160.00
1712.81,150.00
1714.22,152.00
1715.63,157.00
1717.04,152.00
1718.45,158.00
1719.86,156.00
1721.27,152.00
1722.68,137.00
1724.08,154.00
1725.49,154.00
1726.89,168.00
1728.30,165.00
1729.70,160.00
1731.10,139.00
1732.50,194.00
1733.90,150.00
1735.30,154.00
1736.69,141.00
1738.09,161.00
1739.49,152.00
1740.88,140.00
1742.27,150.00
1743.67,129.00
1745.06,147.00
1746.45,156.00
1747.84,144.00
1749.23,150.00
1750.61,132.00
1752.00,140.00
1753.38,139.00
1754.77,156.00
1756.15,146.00
1757.53,126.00
1758.92,145.00
1760.30,118.00
1761.68,144.00
1763.05,148.00
1764.43,147.00
1765.81,144.00
1767.18,123.00
1768.56,136.00
1769.93,125.00
1771.30,139.00
1772.67,120.00
1774.05,130.00
1775.41,125.00
1776.78,142.00
1778.15,130.00
1779.52,128.00
1780.88,122.00
1782.25,131.00
1783.61,120.00
1784.97,137.00
1786.33,150.00
1787.69,127.00
1789.05,118.00
1790.41,126.00
1791.77,144.00
1793.13,113.00
1794.48,128.00
1795.84,118.00
1797.19,125.00
1798.54,122.00
1799.89,131.00
1801.25,127.00
1802.59,118.00
1803.94,121.00
1805.29,109.00
1806.64,123.00
1807.98,120.00
1809.33,125.00
1810.67,126.00
1812.01,119.00
1813.36,112.00
1814.70,102.00
1816.04,122.00
1817.37,119.00
1818.71,137.00
1820.05,130.00
1821.38,106.00
1822.72,124.00
1824.05,111.00
1825.39,127.00
1826.72,116.00
1828.05,124.00
1829.38,107.00
1830.71,120.00
1832.03,118.00
1833.36,108.00
1834.69,124.00
1836.01,120.00
1837.34,137.00
1838.66,111.00
1839.98,110.00
1841.30,109.00
1842.62,137.00
1843.94,114.00
1845.26,112.00
1846.57,114.00
1847.89,124.00
1849.20,120.00
1850.52,143.00
1851.83,122.00
1853.14,116.00
1854.45,109.00
1855.76,108.00
1857.07,97.00
1858.38,115.00
1859.69,120.00
1860.99,135.00
1862.30,116.00
1863.60,121.00
1864.90,126.00
1866.21,104.00
1867.51,124.00
1868.81,127.00
1870.11,124.00
1871.40,111.00
1872.70,110.00
1874.00,139.00
1875.29,114.00
1876.59,98.00
1877.88,124.00
1879.17,93.00
1880.46,114.00
1881.75,118.00
1883.04,109.00
1884.33,121.00
1885.62,116.00
1886.90,107.00
1888.19,111.00
1889.47,114.00
1890.75,118.00
1892.04,137.00
1893.32,92.00
1894.60,129.00
1895.88,105.00
1897.15,116.00
1898.43,118.00
1899.71,99.00
1900.98,103.00
1902.26,109.00
1903.53,128.00
1904.80,127.00
1906.07,95.00
1907.34,120.00
1908.61,114.00
1909.88,100.00
1911.15,109.00
1912.41,103.00
1913.68,124.00
1914.94,112.00
1916.21,105.00
1917.47,112.00
1918.73,95.00
1919.99,107.00
1921.25,109.00
1922.51,104.00
1923.76,111.00
1925.02,107.00
1926.28,116.00
1927.53,93.00
1928.78,110.00
1930.04,93.00
1931.29,110.00
1932.54,97.00
1933.79,119.00
1935.03,91.00
1936.28,109.00
1937.53,91.00
1938.77,96.00
1940.02,91.00
1941.26,103.00
1942.50,116.00
1943.75,111.00
1944.99,101.00
1946.22,89.00
1947.46,89.00
1948.70,94.00
1949.94,102.00
1951.17,95.00
1952.41,107.00
1953.64,80.00
1954.87,98.00
1956.10,93.00
1957.33,76.00
1958.56,91.00
1959.79,90.00
1961.02,82.00
1962.25,100.00
1963.47,97.00
1964.70,98.00
1965.92,103.00
1967.14,92.00
1968.36,104.00
1969.58,78.00
1970.80,99.00
1972.02,103.00
1973.24,95.00
1974.46,91.00
1975.67,103.00
1976.89,97.00
1978.10,78.00
1979.31,84.00
1980.52,95.00
1981.73,78.00
1982.94,86.00
1984.15,95.00
1985.36,90.00
1986.57,73.00
1987.77,88.00
1988.98,78.00
1990.18,64.00
1991.38,97.00
1992.58,74.00
1993.78,71.00
1994.98,84.00
1996.18,104.00
1997.38,78.00
1998.58,78.00
1999.77,97.00
2000.97,82.00
2002.16,80.00
