Integration Time,4000
Timestamp,2022-12-07 14_35_13.608000
Note,
Temperature,9.97
CCD C0,801.50982666
CCD C1,0.141540005803
CCD C2,-5.58820011065e-06
CCD C3,-8.47330028364e-09
CCD Offset,0
CCD Gain,NA
Laser Wavelength,785.0
Laser Enable,0
Laser Power,100
Laser Temperature,0.00
Pixel Count,1024

Wavenumber,Spectrum
262.40,-19.00
264.60,-1.00
266.80,-12.00
269.01,-21.00
271.21,-19.00
273.40,-15.00
275.60,-28.00
277.80,-9.00
280.00,-23.00
282.19,-6.00
284.38,-12.00
286.58,-38.00
288.77,-12.00
290.96,3.00
293.15,3.00
295.34,42.00
297.53,23.00
299.72,63.00
301.90,83.00
304.09,74.00
306.27,116.00
308.46,171.00
310.64,215.00
312.82,199.00
315.00,248.00
317.18,267.00
319.36,305.00
321.54,304.00
323.72,363.00
325.89,339.00
328.07,367.00
330.24,356.00
332.42,373.00
334.59,365.00
336.76,356.00
338.93,392.00
341.10,378.00
343.27,371.00
345.43,348.00
347.60,355.00
349.77,379.00
351.93,344.00
354.09,380.00
356.26,355.00
358.42,339.00
360.58,396.00
362.74,366.00
364.90,426.00
367.06,420.00
369.21,475.00
371.37,428.00
373.52,472.00
375.68,447.00
377.83,445.00
379.98,464.00
382.13,435.00
384.28,434.00
386.43,460.00
388.58,474.00
390.73,466.00
392.87,449.00
395.02,485.00
397.16,491.00
399.31,491.00
401.45,514.00
403.59,574.00
405.73,614.00
407.87,616.00
410.01,687.00
412.15,710.00
414.28,808.00
416.42,860.00
418.55,989.00
420.69,1130.00
422.82,1223.00
424.95,1463.00
427.08,1612.00
429.21,1733.00
431.34,1826.00
433.47,1843.00
435.60,1837.00
437.72,1722.00
439.85,1644.00
441.97,1473.00
444.10,1426.00
446.22,1290.00
448.34,1189.00
450.46,1086.00
452.58,995.00
454.70,942.00
456.81,837.00
458.93,790.00
461.05,764.00
463.16,697.00
465.27,641.00
467.39,654.00
469.50,236.00
471.61,593.00
473.72,538.00
475.83,562.00
477.93,498.00
480.04,546.00
482.15,557.00
484.25,554.00
486.35,546.00
488.46,540.00
490.56,536.00
492.66,529.00
494.76,467.00
496.86,489.00
498.96,407.00
501.05,426.00
503.15,419.00
505.24,415.00
507.34,403.00
509.43,380.00
511.52,344.00
513.61,359.00
515.70,375.00
517.79,354.00
519.88,356.00
521.97,352.00
524.06,342.00
526.14,316.00
528.23,325.00
530.31,290.00
532.39,314.00
534.47,320.00
536.55,343.00
538.63,371.00
540.71,345.00
542.79,323.00
544.87,318.00
546.94,302.00
549.02,316.00
551.09,276.00
553.16,328.00
555.23,333.00
557.30,312.00
559.37,340.00
561.44,316.00
563.51,302.00
565.58,307.00
567.64,298.00
569.71,314.00
571.77,285.00
573.84,314.00
575.90,297.00
577.96,302.00
580.02,303.00
582.08,310.00
584.14,291.00
586.19,316.00
588.25,320.00
590.30,338.00
592.36,289.00
594.41,312.00
596.46,333.00
598.51,310.00
600.56,303.00
602.61,323.00
604.66,303.00
606.71,293.00
608.76,310.00
610.80,337.00
612.85,310.00
614.89,308.00
616.93,310.00
618.97,316.00
621.01,287.00
623.05,310.00
625.09,295.00
627.13,322.00
629.17,279.00
631.20,308.00
633.24,285.00
635.27,293.00
637.30,300.00
639.33,302.00
641.36,294.00
643.39,321.00
645.42,297.00
647.45,280.00
649.48,290.00
651.50,274.00
653.53,289.00
655.55,283.00
657.58,285.00
659.60,289.00
661.62,284.00
663.64,299.00
665.66,272.00
667.68,284.00
669.69,308.00
671.71,279.00
673.72,289.00
675.74,299.00
677.75,265.00
679.76,300.00
681.77,289.00
683.78,274.00
685.79,278.00
687.80,243.00
689.81,257.00
691.81,272.00
693.82,258.00
695.82,267.00
697.83,273.00
699.83,286.00
701.83,251.00
703.83,270.00
705.83,274.00
707.83,304.00
709.83,285.00
711.82,287.00
713.82,279.00
715.81,248.00
717.81,276.00
719.80,272.00
721.79,280.00
723.78,272.00
725.77,267.00
727.76,300.00
729.75,292.00
731.73,276.00
733.72,279.00
735.70,293.00
737.69,306.00
739.67,304.00
741.65,287.00
743.63,248.00
745.61,272.00
747.59,285.00
749.57,321.00
751.55,297.00
753.52,336.00
755.50,304.00
757.47,283.00
759.44,282.00
761.41,308.00
763.39,295.00
765.36,357.00
767.32,321.00
769.29,312.00
771.26,334.00
773.22,329.00
775.19,348.00
777.15,326.00
779.12,358.00
781.08,360.00
783.04,390.00
785.00,355.00
786.96,360.00
788.92,357.00
790.87,392.00
792.83,377.00
794.79,416.00
796.74,430.00
798.69,443.00
800.64,482.00
802.60,515.00
804.55,558.00
806.50,628.00
808.44,768.00
810.39,909.00
812.34,1129.00
814.28,1526.00
816.23,2005.00
818.17,2319.00
820.11,2158.00
822.05,1621.00
823.99,1141.00
825.93,835.00
827.87,712.00
829.81,643.00
831.75,578.00
833.68,603.00
835.62,618.00
837.55,667.00
839.48,645.00
841.41,632.00
843.34,652.00
845.27,674.00
847.20,723.00
849.13,780.00
851.06,814.00
852.98,913.00
854.91,931.00
856.83,1046.00
858.75,1188.00
860.67,1330.00
862.59,1518.00
864.51,1729.00
866.43,2127.00
868.35,2606.00
870.27,3343.00
872.18,4351.00
874.10,5882.00
876.01,7986.00
877.92,10729.00
879.84,13558.00
881.75,15808.00
883.66,16248.00
885.56,15002.00
887.47,12394.00
889.38,9656.00
891.28,7121.00
893.19,5192.00
895.09,3848.00
897.00,2979.00
898.90,2302.00
900.80,1978.00
902.70,1680.00
904.60,1400.00
906.50,1246.00
908.39,1103.00
910.29,1029.00
912.18,953.00
914.08,839.00
915.97,791.00
917.86,778.00
919.75,747.00
921.64,715.00
923.53,683.00
925.42,639.00
927.31,653.00
929.19,657.00
931.08,613.00
932.96,619.00
934.85,652.00
936.73,603.00
938.61,635.00
940.49,595.00
942.37,612.00
944.25,594.00
946.12,630.00
948.00,631.00
949.87,673.00
951.75,666.00
953.62,700.00
955.49,647.00
957.37,612.00
959.24,569.00
961.10,507.00
962.97,430.00
964.84,451.00
966.71,407.00
968.57,424.00
970.44,409.00
972.30,434.00
974.16,418.00
976.02,424.00
977.88,424.00
979.74,434.00
981.60,422.00
983.46,445.00
985.31,449.00
987.17,470.00
989.02,482.00
990.88,473.00
992.73,471.00
994.58,485.00
996.43,526.00
998.28,561.00
1000.13,595.00
1001.98,590.00
1003.82,660.00
1005.67,681.00
1007.51,712.00
1009.36,740.00
1011.20,841.00
1013.04,837.00
1014.88,902.00
1016.72,983.00
1018.56,1093.00
1020.40,1223.00
1022.23,1288.00
1024.07,1446.00
1025.90,1644.00
1027.74,1768.00
1029.57,1994.00
1031.40,2150.00
1033.23,2315.00
1035.06,2562.00
1036.89,2671.00
1038.72,2911.00
1040.54,3219.00
1042.37,3650.00
1044.19,4041.00
1046.02,4402.00
1047.84,4771.00
1049.66,4965.00
1051.48,5120.00
1053.30,4946.00
1055.12,4760.00
1056.94,4370.00
1058.76,3908.00
1060.57,3420.00
1062.39,3098.00
1064.20,2756.00
1066.01,2596.00
1067.82,2475.00
1069.63,2372.00
1071.44,2388.00
1073.25,2435.00
1075.06,2509.00
1076.87,2596.00
1078.67,2808.00
1080.48,2928.00
1082.28,3194.00
1084.08,3447.00
1085.89,3715.00
1087.69,4132.00
1089.49,4463.00
1091.29,4777.00
1093.08,5062.00
1094.88,5157.00
1096.68,5100.00
1098.47,4889.00
1100.27,4483.00
1102.06,3991.00
1103.85,3483.00
1105.64,3116.00
1107.43,2866.00
1109.22,2564.00
1111.01,2420.00
1112.79,2258.00
1114.58,2197.00
1116.37,2106.00
1118.15,2059.00
1119.93,1960.00
1121.71,1914.00
1123.49,1885.00
1125.27,1812.00
1127.05,1735.00
1128.83,1630.00
1130.61,1572.00
1132.38,1455.00
1134.16,1318.00
1135.93,1240.00
1137.71,1133.00
1139.48,1047.00
1141.25,980.00
1143.02,938.00
1144.79,873.00
1146.56,833.00
1148.32,811.00
1150.09,796.00
1151.86,745.00
1153.62,769.00
1155.38,725.00
1157.14,706.00
1158.91,717.00
1160.67,718.00
1162.42,679.00
1164.18,679.00
1165.94,620.00
1167.70,588.00
1169.45,567.00
1171.21,532.00
1172.96,521.00
1174.71,498.00
1176.46,464.00
1178.21,441.00
1179.96,459.00
1181.71,428.00
1183.46,432.00
1185.20,398.00
1186.95,405.00
1188.69,407.00
1190.44,404.00
1192.18,381.00
1193.92,400.00
1195.66,381.00
1197.40,411.00
1199.14,377.00
1200.87,381.00
1202.61,388.00
1204.35,355.00
1206.08,362.00
1207.81,361.00
1209.55,398.00
1211.28,373.00
1213.01,377.00
1214.74,400.00
1216.46,421.00
1218.19,430.00
1219.92,396.00
1221.64,445.00
1223.37,447.00
1225.09,425.00
1226.81,458.00
1228.53,464.00
1230.26,484.00
1231.97,531.00
1233.69,536.00
1235.41,540.00
1237.13,559.00
1238.84,576.00
1240.56,592.00
1242.27,624.00
1243.98,656.00
1245.69,641.00
1247.40,648.00
1249.11,696.00
1250.82,720.00
1252.53,778.00
1254.24,824.00
1255.94,927.00
1257.65,979.00
1259.35,1039.00
1261.05,1132.00
1262.75,1255.00
1264.45,1365.00
1266.15,1551.00
1267.85,1717.00
1269.55,1961.00
1271.25,2233.00
1272.94,2449.00
1274.64,2580.00
1276.33,2591.00
1278.02,2589.00
1279.71,2412.00
1281.40,2191.00
1283.09,1958.00
1284.78,1802.00
1286.47,1605.00
1288.16,1449.00
1289.84,1307.00
1291.53,1200.00
1293.21,1096.00
1294.89,1058.00
1296.57,1024.00
1298.25,930.00
1299.93,915.00
1301.61,854.00
1303.29,894.00
1304.97,824.00
1306.64,839.00
1308.32,816.00
1309.99,801.00
1311.66,802.00
1313.33,791.00
1315.01,766.00
1316.67,734.00
1318.34,769.00
1320.01,755.00
1321.68,744.00
1323.34,746.00
1325.01,750.00
1326.67,742.00
1328.33,741.00
1330.00,724.00
1331.66,763.00
1333.32,741.00
1334.98,732.00
1336.63,753.00
1338.29,814.00
1339.95,787.00
1341.60,803.00
1343.25,820.00
1344.91,801.00
1346.56,773.00
1348.21,791.00
1349.86,786.00
1351.51,771.00
1353.16,773.00
1354.80,790.00
1356.45,802.00
1358.09,807.00
1359.74,816.00
1361.38,843.00
1363.02,848.00
1364.66,867.00
1366.30,856.00
1367.94,890.00
1369.58,921.00
1371.22,972.00
1372.85,976.00
1374.49,1071.00
1376.12,1126.00
1377.75,1121.00
1379.38,1143.00
1381.02,1191.00
1382.65,1235.00
1384.27,1259.00
1385.90,1290.00
1387.53,1288.00
1389.15,1227.00
1390.78,1277.00
1392.40,1293.00
1394.03,1305.00
1395.65,1305.00
1397.27,1349.00
1398.89,1400.00
1400.51,1920.00
1402.13,1414.00
1403.74,1459.00
1405.36,1501.00
1406.97,1549.00
1408.59,1592.00
1410.20,1663.00
1411.81,1756.00
1413.42,1778.00
1415.03,1813.00
1416.64,1855.00
1418.25,1925.00
1419.86,1967.00
1421.46,2074.00
1423.07,2099.00
1424.67,2199.00
1426.28,2234.00
1427.88,2348.00
1429.48,2405.00
1431.08,2554.00
1432.68,2623.00
1434.28,2787.00
1435.87,2981.00
1437.47,3208.00
1439.06,3458.00
1440.66,3736.00
1442.25,4096.00
1443.84,4511.00
1445.43,4887.00
1447.02,5498.00
1448.61,5921.00
1450.20,6346.00
1451.79,6689.00
1453.37,6940.00
1454.96,7050.00
1456.54,6828.00
1458.13,6517.00
1459.71,6016.00
1461.29,5487.00
1462.87,4984.00
1464.45,4482.00
1466.03,4113.00
1467.60,3772.00
1469.18,3461.00
1470.76,3303.00
1472.33,3148.00
1473.90,2992.00
1475.48,2974.00
1477.05,2958.00
1478.62,2899.00
1480.19,2956.00
1481.75,3018.00
1483.32,2910.00
1484.89,2825.00
1486.45,2688.00
1488.02,2562.00
1489.58,2395.00
1491.14,2230.00
1492.70,2042.00
1494.26,1920.00
1495.82,1756.00
1497.38,1615.00
1498.94,1526.00
1500.50,1444.00
1502.05,1343.00
1503.61,1342.00
1505.16,1297.00
1506.71,1197.00
1508.26,1160.00
1509.81,1121.00
1511.36,1044.00
1512.91,1008.00
1514.46,972.00
1516.00,957.00
1517.55,923.00
1519.09,856.00
1520.64,814.00
1522.18,843.00
1523.72,818.00
1525.26,812.00
1526.80,756.00
1528.34,742.00
1529.88,709.00
1531.41,677.00
1532.95,687.00
1534.48,664.00
1536.02,641.00
1537.55,628.00
1539.08,605.00
1540.61,607.00
1542.14,586.00
1543.67,588.00
1545.19,582.00
1546.72,533.00
1548.25,518.00
1549.77,504.00
1551.29,481.00
1552.82,500.00
1554.34,497.00
1555.86,497.00
1557.38,439.00
1558.90,442.00
1560.41,428.00
1561.93,443.00
1563.45,421.00
1564.96,432.00
1566.47,416.00
1567.99,403.00
1569.50,397.00
1571.01,354.00
1572.52,355.00
1574.03,331.00
1575.53,369.00
1577.04,354.00
1578.55,336.00
1580.05,319.00
1581.55,328.00
1583.06,318.00
1584.56,299.00
1586.06,309.00
1587.56,307.00
1589.06,314.00
1590.56,291.00
1592.05,285.00
1593.55,297.00
1595.04,289.00
1596.54,262.00
1598.03,289.00
1599.52,295.00
1601.01,310.00
1602.50,262.00
1603.99,360.00
1605.48,261.00
1606.96,289.00
1608.45,287.00
1609.93,264.00
1611.42,282.00
1612.90,286.00
1614.38,331.00
1615.86,291.00
1617.34,291.00
1618.82,270.00
1620.30,278.00
1621.78,306.00
1623.25,276.00
1624.73,282.00
1626.20,288.00
1627.67,235.00
1629.14,243.00
1630.62,237.00
1632.08,236.00
1633.55,222.00
1635.02,224.00
1636.49,209.00
1637.95,222.00
1639.42,210.00
1640.88,205.00
1642.35,171.00
1643.81,205.00
1645.27,184.00
1646.73,166.00
1648.19,177.00
1649.64,200.00
1651.10,181.00
1652.56,177.00
1654.01,137.00
1655.47,165.00
1656.92,158.00
1658.37,164.00
1659.82,179.00
1661.27,184.00
1662.72,169.00
1664.17,158.00
1665.62,154.00
1667.06,154.00
1668.51,169.00
1669.95,146.00
1671.39,191.00
1672.84,154.00
1674.28,163.00
1675.72,141.00
1677.16,158.00
1678.59,156.00
1680.03,154.00
1681.47,180.00
1682.90,167.00
1684.34,154.00
1685.77,141.00
1687.20,143.00
1688.63,167.00
1690.06,171.00
1691.49,148.00
1692.92,168.00
1694.35,163.00
1695.77,163.00
1697.20,131.00
1698.62,144.00
1700.04,152.00
1701.47,139.00
1702.89,148.00
1704.31,158.00
1705.73,121.00
1707.14,152.00
1708.56,161.00
1709.98,133.00
1711.39,137.00
1712.81,148.00
1714.22,120.00
1715.63,112.00
1717.04,156.00
1718.45,131.00
1719.86,118.00
1721.27,105.00
1722.68,122.00
1724.08,127.00
1725.49,128.00
1726.89,124.00
1728.30,91.00
1729.70,137.00
1731.10,127.00
1732.50,127.00
1733.90,103.00
1735.30,129.00
1736.69,116.00
1738.09,63.00
1739.49,123.00
1740.88,107.00
1742.27,102.00
1743.67,108.00
1745.06,108.00
1746.45,114.00
1747.84,95.00
1749.23,114.00
1750.61,93.00
1752.00,120.00
1753.38,85.00
1754.77,82.00
1756.15,61.00
1757.53,68.00
1758.92,87.00
1760.30,60.00
1761.68,76.00
1763.05,74.00
1764.43,78.00
1765.81,69.00
1767.18,78.00
1768.56,65.00
1769.93,71.00
1771.30,54.00
1772.67,68.00
1774.05,89.00
1775.41,59.00
1776.78,55.00
1778.15,78.00
1779.52,72.00
1780.88,71.00
1782.25,78.00
1783.61,57.00
1784.97,68.00
1786.33,72.00
1787.69,63.00
1789.05,57.00
1790.41,52.00
1791.77,40.00
1793.13,67.00
1794.48,67.00
1795.84,80.00
1797.19,85.00
1798.54,49.00
1799.89,60.00
1801.25,48.00
1802.59,40.00
1803.94,36.00
1805.29,73.00
1806.64,52.00
1807.98,40.00
1809.33,72.00
1810.67,47.00
1812.01,80.00
1813.36,21.00
1814.70,74.00
1816.04,40.00
1817.37,55.00
1818.71,38.00
1820.05,61.00
1821.38,34.00
1822.72,53.00
1824.05,82.00
1825.39,57.00
1826.72,46.00
1828.05,45.00
1829.38,58.00
1830.71,59.00
1832.03,30.00
1833.36,36.00
1834.69,63.00
1836.01,60.00
1837.34,61.00
1838.66,28.00
1839.98,65.00
1841.30,23.00
1842.62,66.00
1843.94,36.00
1845.26,44.00
1846.57,82.00
1847.89,33.00
1849.20,38.00
1850.52,49.00
1851.83,65.00
1853.14,27.00
1854.45,17.00
1855.76,23.00
1857.07,33.00
1858.38,17.00
1859.69,36.00
1860.99,48.00
1862.30,29.00
1863.60,33.00
1864.90,70.00
1866.21,23.00
1867.51,17.00
1868.81,49.00
1870.11,54.00
1871.40,39.00
1872.70,29.00
1874.00,42.00
1875.29,38.00
1876.59,61.00
1877.88,46.00
1879.17,49.00
1880.46,38.00
1881.75,68.00
1883.04,43.00
1884.33,32.00
1885.62,48.00
1886.90,27.00
1888.19,26.00
1889.47,55.00
1890.75,21.00
1892.04,15.00
1893.32,67.00
1894.60,46.00
1895.88,17.00
1897.15,55.00
1898.43,34.00
1899.71,34.00
1900.98,52.00
1902.26,46.00
1903.53,44.00
1904.80,38.00
1906.07,42.00
1907.34,55.00
1908.61,34.00
1909.88,47.00
1911.15,6.00
1912.41,10.00
1913.68,45.00
1914.94,47.00
1916.21,19.00
1917.47,50.00
1918.73,28.00
1919.99,15.00
1921.25,48.00
1922.51,37.00
1923.76,57.00
1925.02,27.00
1926.28,32.00
1927.53,59.00
1928.78,12.00
1930.04,46.00
1931.29,19.00
1932.54,25.00
1933.79,53.00
1935.03,38.00
1936.28,6.00
1937.53,44.00
1938.77,27.00
1940.02,45.00
1941.26,30.00
1942.50,34.00
1943.75,53.00
1944.99,34.00
1946.22,44.00
1947.46,4.00
1948.70,40.00
1949.94,13.00
1951.17,30.00
1952.41,31.00
1953.64,36.00
1954.87,49.00
1956.10,32.00
1957.33,28.00
1958.56,29.00
1959.79,44.00
1961.02,35.00
1962.25,27.00
1963.47,30.00
1964.70,50.00
1965.92,1.00
1967.14,50.00
1968.36,38.00
1969.58,4.00
1970.80,15.00
1972.02,13.00
1973.24,40.00
1974.46,7.00
1975.67,46.00
1976.89,34.00
1978.10,25.00
1979.31,2.00
1980.52,8.00
1981.73,21.00
1982.94,30.00
1984.15,25.00
1985.36,11.00
1986.57,44.00
1987.77,11.00
1988.98,4.00
1990.18,33.00
1991.38,44.00
1992.58,-2.00
1993.78,8.00
1994.98,12.00
1996.18,42.00
1997.38,-10.00
1998.58,9.00
1999.77,40.00
2000.97,31.00
2002.16,9.00
